,0,1,2,3
0,6.01107183011477e+30,5918084.044884487,1.661784791768475e+20,0.0
1,6.014453029496688e+30,5972695.152718601,7.964067383894334e+19,0.0
2,6.007783033567314e+30,5879474.739968258,2.5292618079489285e+20,0.0
3,6.009588824399657e+30,5899526.814887167,2.0501999153766957e+20,0.0
4,6.015762715302085e+30,6003395.460827081,4.707944805209413e+19,0.0
5,6.015316492563164e+30,5991846.225511645,5.8098431201069466e+19,0.0
6,6.014453029496688e+30,5972695.152718601,7.964067383894334e+19,0.0
7,6.01228848281974e+30,5935249.302901699,1.3468869498956074e+20,0.0
8,6.016666653047539e+30,6032952.661967221,2.5046753860937822e+19,0.0
9,6.013714355793105e+30,5958597.869055404,9.827146862582135e+19,0.0
10,6.012811904054108e+30,5943340.480373938,1.2125551260271749e+20,0.0
11,6.01228848281974e+30,5935249.302901699,1.3468869498956074e+20,0.0
12,6.015954111195525e+30,6008831.517258787,4.237985480374223e+19,0.0
13,6.005586655122874e+30,5857818.932316519,3.1200802073192366e+20,0.0
14,6.006738405158427e+30,5868854.346561475,2.809202754068653e+20,0.0
15,6.01228848281974e+30,5935249.302901699,1.3468869498956074e+20,0.0
16,6.017025138014303e+30,6049019.913837977,1.6442728256101835e+19,0.0
17,6.01107183011477e+30,5918084.044884487,1.661784791768475e+20,0.0
18,6.009588824399657e+30,5899526.814887167,2.0501999153766957e+20,0.0
19,6.008730225088642e+30,5889694.296052041,2.2771838111614874e+20,0.0
20,6.017687774892719e+30,6110477.104661111,8.62435120140031e+17,0.0
21,6.017349614994914e+30,6068695.268849202,8.744552381821258e+18,0.0
22,6.017450370817029e+30,6076857.600916444,6.376656256480266e+18,0.0
23,6.016864205826186e+30,6041313.1921121245,2.02940084040304e+19,0.0
24,6.005586655122874e+30,5857818.932316519,3.1200802073192366e+20,0.0
25,6.007783033567314e+30,5879474.739968258,2.5292618079489285e+20,0.0
26,6.016948797412611e+30,6045245.097877671,1.826720488329366e+19,0.0
27,6.017094024852355e+30,6052643.717549747,1.4800393828153938e+19,0.0
28,6.015057161875266e+30,5985715.428251033,6.453945105232895e+19,0.0
29,6.007783033567314e+30,5879474.739968258,2.5292618079489285e+20,0.0
30,6.014453029496688e+30,5972695.152718601,7.964067383894334e+19,0.0
31,6.013285655400123e+30,5951119.590665737,1.0916083913275595e+20,0.0
32,6.012811904054108e+30,5943340.480373938,1.2125551260271749e+20,0.0
33,6.015057161875266e+30,5985715.428251033,6.453945105232895e+19,0.0
34,6.010366904504607e+30,5908985.716527723,1.8458158554985408e+20,0.0
35,6.015550889914525e+30,5997736.583679496,5.2299763226291634e+19,0.0
36,6.014770296074528e+30,5979334.928942936,7.169389221579923e+19,0.0
37,6.016283206200113e+30,6019068.363432242,3.434041876268193e+19,0.0
38,6.014102206956836e+30,5965786.205869841,8.846742977958134e+19,0.0
39,6.015316492563164e+30,5991846.225511645,5.8098431201069466e+19,0.0
40,6.013714355793105e+30,5958597.869055404,9.827146862582135e+19,0.0
41,6.014453029496688e+30,5972695.152718601,7.964067383894334e+19,0.0
42,6.014453029496688e+30,5972695.152718601,7.964067383894334e+19,0.0
43,6.011710316317055e+30,5926834.472029937,1.496082828965845e+20,0.0
44,6.016424264472145e+30,6023885.049677355,3.0911769230487618e+19,0.0
45,6.017156179134622e+30,6056122.366980544,1.332202887593323e+19,0.0
46,6.017450370817029e+30,6076857.600916444,6.376656256480266e+18,0.0
47,6.01228848281974e+30,5935249.302901699,1.3468869498956074e+20,0.0
48,6.017308463404362e+30,6065742.815780126,9.71513389714439e+18,0.0
49,6.013285655400123e+30,5951119.590665737,1.0916083913275595e+20,0.0
50,6.01107183011477e+30,5918084.044884487,1.661784791768475e+20,0.0
51,6.015954111195525e+30,6008831.517258787,4.237985480374223e+19,0.0
52,6.015316492563164e+30,5991846.225511645,5.8098431201069466e+19,0.0
53,6.014770296074528e+30,5979334.928942936,7.169389221579923e+19,0.0
54,6.009588824399657e+30,5899526.814887167,2.0501999153766957e+20,0.0
55,6.014453029496688e+30,5972695.152718601,7.964067383894334e+19,0.0
56,6.016666653047539e+30,6032952.661967221,2.5046753860937822e+19,0.0
57,6.017477579083236e+30,6079361.716654416,5.739508903656227e+18,0.0
58,6.009588824399657e+30,5899526.814887167,2.0501999153766957e+20,0.0
59,6.010366904504607e+30,5908985.716527723,1.8458158554985408e+20,0.0
60,6.012811904054108e+30,5943340.480373938,1.2125551260271749e+20,0.0
61,6.01228848281974e+30,5935249.302901699,1.3468869498956074e+20,0.0
62,6.012811904054108e+30,5943340.480373938,1.2125551260271749e+20,0.0
63,6.015762715302085e+30,6003395.460827081,4.707944805209413e+19,0.0
64,6.015762715302085e+30,6003395.460827081,4.707944805209413e+19,0.0
65,6.013714355793105e+30,5958597.869055404,9.827146862582135e+19,0.0
66,6.014453029496688e+30,5972695.152718601,7.964067383894334e+19,0.0
67,6.014453029496688e+30,5972695.152718601,7.964067383894334e+19,0.0
68,6.016864205826186e+30,6041313.1921121245,2.02940084040304e+19,0.0
69,6.014102206956836e+30,5965786.205869841,8.846742977958134e+19,0.0
70,6.015954111195525e+30,6008831.517258787,4.237985480374223e+19,0.0
71,6.016424264472145e+30,6023885.049677355,3.0911769230487618e+19,0.0
72,6.011710316317055e+30,5926834.472029937,1.496082828965845e+20,0.0
73,6.016948797412611e+30,6045245.097877671,1.826720488329366e+19,0.0
74,6.011710316317055e+30,5926834.472029937,1.496082828965845e+20,0.0
75,6.017661758821796e+30,6104019.835976978,1.4602023555208049e+18,0.0
76,6.015316492563164e+30,5991846.225511645,5.8098431201069466e+19,0.0
77,6.006738405158427e+30,5868854.346561475,2.809202754068653e+20,0.0
78,6.013285655400123e+30,5951119.590665737,1.0916083913275595e+20,0.0
79,6.014102206956836e+30,5965786.205869841,8.846742977958134e+19,0.0
80,6.016864205826186e+30,6041313.1921121245,2.02940084040304e+19,0.0
81,6.015057161875266e+30,5985715.428251033,6.453945105232895e+19,0.0
82,6.016283206200113e+30,6019068.363432242,3.434041876268193e+19,0.0
83,6.014770296074528e+30,5979334.928942936,7.169389221579923e+19,0.0
84,6.007783033567314e+30,5879474.739968258,2.5292618079489285e+20,0.0
85,6.015762715302085e+30,6003395.460827081,4.707944805209413e+19,0.0
86,6.014102206956836e+30,5965786.205869841,8.846742977958134e+19,0.0
87,6.01228848281974e+30,5935249.302901699,1.3468869498956074e+20,0.0
88,6.007783033567314e+30,5879474.739968258,2.5292618079489285e+20,0.0
89,6.013285655400123e+30,5951119.590665737,1.0916083913275595e+20,0.0
90,6.01228848281974e+30,5935249.302901699,1.3468869498956074e+20,0.0
91,6.013285655400123e+30,5951119.590665737,1.0916083913275595e+20,0.0
92,6.005586655122874e+30,5857818.932316519,3.1200802073192366e+20,0.0
93,6.01228848281974e+30,5935249.302901699,1.3468869498956074e+20,0.0
94,6.015550889914525e+30,5997736.583679496,5.2299763226291634e+19,0.0
95,6.010366904504607e+30,5908985.716527723,1.8458158554985408e+20,0.0
96,6.01107183011477e+30,5918084.044884487,1.661784791768475e+20,0.0
97,6.01228848281974e+30,5935249.302901699,1.3468869498956074e+20,0.0
98,6.014770296074528e+30,5979334.928942936,7.169389221579923e+19,0.0
99,6.016283206200113e+30,6019068.363432242,3.434041876268193e+19,0.0
100,6.007783033567314e+30,5879474.739968258,2.5292618079489285e+20,0.0
101,6.012811904054108e+30,5943340.480373938,1.2125551260271749e+20,0.0
102,6.017477579083236e+30,6079361.716654416,5.739508903656227e+18,0.0
103,6.017025138014303e+30,6049019.913837977,1.6442728256101835e+19,0.0
104,6.013714355793105e+30,5958597.869055404,9.827146862582135e+19,0.0
105,6.01228848281974e+30,5935249.302901699,1.3468869498956074e+20,0.0
106,6.013714355793105e+30,5958597.869055404,9.827146862582135e+19,0.0
107,6.01721225316775e+30,6059461.507229098,1.1991272326345535e+19,0.0
108,6.015316492563164e+30,5991846.225511645,5.8098431201069466e+19,0.0
109,6.01228848281974e+30,5935249.302901699,1.3468869498956074e+20,0.0
110,6.016424264472145e+30,6023885.049677355,3.0911769230487618e+19,0.0
111,6.013285655400123e+30,5951119.590665737,1.0916083913275595e+20,0.0
112,6.01228848281974e+30,5935249.302901699,1.3468869498956074e+20,0.0
113,6.012811904054108e+30,5943340.480373938,1.2125551260271749e+20,0.0
114,6.012811904054108e+30,5943340.480373938,1.2125551260271749e+20,0.0
115,6.014770296074528e+30,5979334.928942936,7.169389221579923e+19,0.0
116,6.011710316317055e+30,5926834.472029937,1.496082828965845e+20,0.0
117,6.017308463404362e+30,6065742.815780126,9.71513389714439e+18,0.0
118,6.014770296074528e+30,5979334.928942936,7.169389221579923e+19,0.0
119,6.013285655400123e+30,5951119.590665737,1.0916083913275595e+20,0.0
120,6.01228848281974e+30,5935249.302901699,1.3468869498956074e+20,0.0
121,6.014453029496688e+30,5972695.152718601,7.964067383894334e+19,0.0
122,6.016127020831962e+30,6014053.12268462,3.81490882198401e+19,0.0
123,6.011710316317055e+30,5926834.472029937,1.496082828965845e+20,0.0
124,6.012811904054108e+30,5943340.480373938,1.2125551260271749e+20,0.0
125,6.010366904504607e+30,5908985.716527723,1.8458158554985408e+20,0.0
126,6.016948797412611e+30,6045245.097877671,1.826720488329366e+19,0.0
127,6.015762715302085e+30,6003395.460827081,4.707944805209413e+19,0.0
128,6.01228848281974e+30,5935249.302901699,1.3468869498956074e+20,0.0
129,6.006738405158427e+30,5868854.346561475,2.809202754068653e+20,0.0
130,6.012811904054108e+30,5943340.480373938,1.2125551260271749e+20,0.0
131,6.016283206200113e+30,6019068.363432242,3.434041876268193e+19,0.0
132,6.013714355793105e+30,5958597.869055404,9.827146862582135e+19,0.0
133,6.012811904054108e+30,5943340.480373938,1.2125551260271749e+20,0.0
134,6.01228848281974e+30,5935249.302901699,1.3468869498956074e+20,0.0
135,6.015550889914525e+30,5997736.583679496,5.2299763226291634e+19,0.0
136,6.015316492563164e+30,5991846.225511645,5.8098431201069466e+19,0.0
137,6.008730225088642e+30,5889694.296052041,2.2771838111614874e+20,0.0
138,6.011710316317055e+30,5926834.472029937,1.496082828965845e+20,0.0
139,6.015762715302085e+30,6003395.460827081,4.707944805209413e+19,0.0
140,6.010366904504607e+30,5908985.716527723,1.8458158554985408e+20,0.0
141,6.01721225316775e+30,6059461.507229098,1.1991272326345535e+19,0.0
142,6.014770296074528e+30,5979334.928942936,7.169389221579923e+19,0.0
143,6.016666653047539e+30,6032952.661967221,2.5046753860937822e+19,0.0
144,6.009588824399657e+30,5899526.814887167,2.0501999153766957e+20,0.0
145,6.010366904504607e+30,5908985.716527723,1.8458158554985408e+20,0.0
146,6.006738405158427e+30,5868854.346561475,2.809202754068653e+20,0.0
147,6.013714355793105e+30,5958597.869055404,9.827146862582135e+19,0.0
148,6.015316492563164e+30,5991846.225511645,5.8098431201069466e+19,0.0
149,6.013285655400123e+30,5951119.590665737,1.0916083913275595e+20,0.0
150,6.016551643007917e+30,6028510.722673947,2.7825252285338345e+19,0.0
151,6.01228848281974e+30,5935249.302901699,1.3468869498956074e+20,0.0
152,6.014453029496688e+30,5972695.152718601,7.964067383894334e+19,0.0
153,6.014770296074528e+30,5979334.928942936,7.169389221579923e+19,0.0
154,6.017156179134622e+30,6056122.366980544,1.332202887593323e+19,0.0
155,6.011710316317055e+30,5926834.472029937,1.496082828965845e+20,0.0
156,6.016864205826186e+30,6041313.1921121245,2.02940084040304e+19,0.0
157,6.011710316317055e+30,5926834.472029937,1.496082828965845e+20,0.0
158,6.01107183011477e+30,5918084.044884487,1.661784791768475e+20,0.0
159,6.015762715302085e+30,6003395.460827081,4.707944805209413e+19,0.0
160,6.016127020831962e+30,6014053.12268462,3.81490882198401e+19,0.0
161,6.016424264472145e+30,6023885.049677355,3.0911769230487618e+19,0.0
162,6.012811904054108e+30,5943340.480373938,1.2125551260271749e+20,0.0
163,6.011710316317055e+30,5926834.472029937,1.496082828965845e+20,0.0
164,6.012811904054108e+30,5943340.480373938,1.2125551260271749e+20,0.0
165,6.004317184956984e+30,5846353.927339612,3.4653058522731656e+20,0.0
166,6.015316492563164e+30,5991846.225511645,5.8098431201069466e+19,0.0
167,6.015550889914525e+30,5997736.583679496,5.2299763226291634e+19,0.0
168,6.004317184956984e+30,5846353.927339612,3.4653058522731656e+20,0.0
169,6.004317184956984e+30,5846353.927339612,3.4653058522731656e+20,0.0
170,6.012811904054108e+30,5943340.480373938,1.2125551260271749e+20,0.0
171,6.015954111195525e+30,6008831.517258787,4.237985480374223e+19,0.0
172,6.01228848281974e+30,5935249.302901699,1.3468869498956074e+20,0.0
173,6.01107183011477e+30,5918084.044884487,1.661784791768475e+20,0.0
174,6.01107183011477e+30,5918084.044884487,1.661784791768475e+20,0.0
175,6.017477579083236e+30,6079361.716654416,5.739508903656227e+18,0.0
176,6.007783033567314e+30,5879474.739968258,2.5292618079489285e+20,0.0
177,6.013285655400123e+30,5951119.590665737,1.0916083913275595e+20,0.0
178,6.014770296074528e+30,5979334.928942936,7.169389221579923e+19,0.0
179,6.016424264472145e+30,6023885.049677355,3.0911769230487618e+19,0.0
180,6.015057161875266e+30,5985715.428251033,6.453945105232895e+19,0.0
181,6.009588824399657e+30,5899526.814887167,2.0501999153766957e+20,0.0
182,6.016864205826186e+30,6041313.1921121245,2.02940084040304e+19,0.0
183,6.01761792474162e+30,6096068.294234277,2.472158012880538e+18,0.0
184,6.008730225088642e+30,5889694.296052041,2.2771838111614874e+20,0.0
185,6.016770482199806e+30,6037217.8925734265,2.2545557910666375e+19,0.0
186,6.016424264472145e+30,6023885.049677355,3.0911769230487618e+19,0.0
187,6.016770482199806e+30,6037217.8925734265,2.2545557910666375e+19,0.0
188,6.015057161875266e+30,5985715.428251033,6.453945105232895e+19,0.0
189,6.013714355793105e+30,5958597.869055404,9.827146862582135e+19,0.0
190,6.015316492563164e+30,5991846.225511645,5.8098431201069466e+19,0.0
191,6.015954111195525e+30,6008831.517258787,4.237985480374223e+19,0.0
192,6.014102206956836e+30,5965786.205869841,8.846742977958134e+19,0.0
193,6.006738405158427e+30,5868854.346561475,2.809202754068653e+20,0.0
194,6.015057161875266e+30,5985715.428251033,6.453945105232895e+19,0.0
195,6.013285655400123e+30,5951119.590665737,1.0916083913275595e+20,0.0
196,6.011710316317055e+30,5926834.472029937,1.496082828965845e+20,0.0
197,6.010366904504607e+30,5908985.716527723,1.8458158554985408e+20,0.0
198,6.007783033567314e+30,5879474.739968258,2.5292618079489285e+20,0.0
199,6.010366904504607e+30,5908985.716527723,1.8458158554985408e+20,0.0
200,6.015954111195525e+30,6008831.517258787,4.237985480374223e+19,0.0
201,6.016948797412611e+30,6045245.097877671,1.826720488329366e+19,0.0
202,6.006738405158427e+30,5868854.346561475,2.809202754068653e+20,0.0
203,6.008730225088642e+30,5889694.296052041,2.2771838111614874e+20,0.0
204,6.016666653047539e+30,6032952.661967221,2.5046753860937822e+19,0.0
205,6.007783033567314e+30,5879474.739968258,2.5292618079489285e+20,0.0
206,6.011710316317055e+30,5926834.472029937,1.496082828965845e+20,0.0
207,6.015954111195525e+30,6008831.517258787,4.237985480374223e+19,0.0
208,6.015954111195525e+30,6008831.517258787,4.237985480374223e+19,0.0
209,6.015316492563164e+30,5991846.225511645,5.8098431201069466e+19,0.0
210,6.006738405158427e+30,5868854.346561475,2.809202754068653e+20,0.0
211,6.015762715302085e+30,6003395.460827081,4.707944805209413e+19,0.0
212,6.011710316317055e+30,5926834.472029937,1.496082828965845e+20,0.0
213,6.016127020831962e+30,6014053.12268462,3.81490882198401e+19,0.0
214,6.016666653047539e+30,6032952.661967221,2.5046753860937822e+19,0.0
215,6.01107183011477e+30,5918084.044884487,1.661784791768475e+20,0.0
216,6.016127020831962e+30,6014053.12268462,3.81490882198401e+19,0.0
217,6.010366904504607e+30,5908985.716527723,1.8458158554985408e+20,0.0
218,6.010366904504607e+30,5908985.716527723,1.8458158554985408e+20,0.0
219,6.015316492563164e+30,5991846.225511645,5.8098431201069466e+19,0.0
220,6.014453029496688e+30,5972695.152718601,7.964067383894334e+19,0.0
221,6.014453029496688e+30,5972695.152718601,7.964067383894334e+19,0.0
222,6.013285655400123e+30,5951119.590665737,1.0916083913275595e+20,0.0
223,6.008730225088642e+30,5889694.296052041,2.2771838111614874e+20,0.0
224,6.013714355793105e+30,5958597.869055404,9.827146862582135e+19,0.0
225,6.011710316317055e+30,5926834.472029937,1.496082828965845e+20,0.0
226,6.01107183011477e+30,5918084.044884487,1.661784791768475e+20,0.0
227,6.009588824399657e+30,5899526.814887167,2.0501999153766957e+20,0.0
228,6.013285655400123e+30,5951119.590665737,1.0916083913275595e+20,0.0
229,6.012811904054108e+30,5943340.480373938,1.2125551260271749e+20,0.0
230,6.005586655122874e+30,5857818.932316519,3.1200802073192366e+20,0.0
231,6.015057161875266e+30,5985715.428251033,6.453945105232895e+19,0.0
232,6.016551643007917e+30,6028510.722673947,2.7825252285338345e+19,0.0
233,6.015316492563164e+30,5991846.225511645,5.8098431201069466e+19,0.0
234,6.015762715302085e+30,6003395.460827081,4.707944805209413e+19,0.0
235,6.012811904054108e+30,5943340.480373938,1.2125551260271749e+20,0.0
236,6.013285655400123e+30,5951119.590665737,1.0916083913275595e+20,0.0
237,6.013285655400123e+30,5951119.590665737,1.0916083913275595e+20,0.0
238,6.01228848281974e+30,5935249.302901699,1.3468869498956074e+20,0.0
239,6.017578320089918e+30,6090441.616930078,3.390476204807076e+18,0.0
240,6.006738405158427e+30,5868854.346561475,2.809202754068653e+20,0.0
241,6.011710316317055e+30,5926834.472029937,1.496082828965845e+20,0.0
242,6.012811904054108e+30,5943340.480373938,1.2125551260271749e+20,0.0
243,6.01228848281974e+30,5935249.302901699,1.3468869498956074e+20,0.0
244,6.013285655400123e+30,5951119.590665737,1.0916083913275595e+20,0.0
245,6.011710316317055e+30,5926834.472029937,1.496082828965845e+20,0.0
246,6.010366904504607e+30,5908985.716527723,1.8458158554985408e+20,0.0
247,6.009588824399657e+30,5899526.814887167,2.0501999153766957e+20,0.0
248,6.016770482199806e+30,6037217.8925734265,2.2545557910666375e+19,0.0
249,6.009588824399657e+30,5899526.814887167,2.0501999153766957e+20,0.0
250,6.007783033567314e+30,5879474.739968258,2.5292618079489285e+20,0.0
251,6.015550889914525e+30,5997736.583679496,5.2299763226291634e+19,0.0
252,6.015954111195525e+30,6008831.517258787,4.237985480374223e+19,0.0
253,6.015057161875266e+30,5985715.428251033,6.453945105232895e+19,0.0
254,6.016283206200113e+30,6019068.363432242,3.434041876268193e+19,0.0
255,6.016666653047539e+30,6032952.661967221,2.5046753860937822e+19,0.0
256,6.013714355793105e+30,5958597.869055404,9.827146862582135e+19,0.0
257,6.014770296074528e+30,5979334.928942936,7.169389221579923e+19,0.0
258,6.012811904054108e+30,5943340.480373938,1.2125551260271749e+20,0.0
259,6.016770482199806e+30,6037217.8925734265,2.2545557910666375e+19,0.0
260,6.005586655122874e+30,5857818.932316519,3.1200802073192366e+20,0.0
261,6.011710316317055e+30,5926834.472029937,1.496082828965845e+20,0.0
262,6.013285655400123e+30,5951119.590665737,1.0916083913275595e+20,0.0
263,6.013285655400123e+30,5951119.590665737,1.0916083913275595e+20,0.0
264,6.015057161875266e+30,5985715.428251033,6.453945105232895e+19,0.0
265,6.013285655400123e+30,5951119.590665737,1.0916083913275595e+20,0.0
266,6.001377639491502e+30,5822074.919663735,4.274365530166321e+20,0.0
267,6.012811904054108e+30,5943340.480373938,1.2125551260271749e+20,0.0
268,6.014770296074528e+30,5979334.928942936,7.169389221579923e+19,0.0
269,6.013285655400123e+30,5951119.590665737,1.0916083913275595e+20,0.0
270,6.01228848281974e+30,5935249.302901699,1.3468869498956074e+20,0.0
271,6.016770482199806e+30,6037217.8925734265,2.2545557910666375e+19,0.0
272,6.015550889914525e+30,5997736.583679496,5.2299763226291634e+19,0.0
273,6.01107183011477e+30,5918084.044884487,1.661784791768475e+20,0.0
274,6.017703200888046e+30,6115718.377498,5.0935524184720384e+17,0.0
275,6.015057161875266e+30,5985715.428251033,6.453945105232895e+19,0.0
276,6.016127020831962e+30,6014053.12268462,3.81490882198401e+19,0.0
277,6.011710316317055e+30,5926834.472029937,1.496082828965845e+20,0.0
278,6.014770296074528e+30,5979334.928942936,7.169389221579923e+19,0.0
279,6.011710316317055e+30,5926834.472029937,1.496082828965845e+20,0.0
280,6.016127020831962e+30,6014053.12268462,3.81490882198401e+19,0.0
281,6.015057161875266e+30,5985715.428251033,6.453945105232895e+19,0.0
282,6.017262836821855e+30,6062666.577136279,1.0793394350676365e+19,0.0
283,6.01107183011477e+30,5918084.044884487,1.661784791768475e+20,0.0
284,6.016864205826186e+30,6041313.1921121245,2.02940084040304e+19,0.0
285,6.015316492563164e+30,5991846.225511645,5.8098431201069466e+19,0.0
286,6.010366904504607e+30,5908985.716527723,1.8458158554985408e+20,0.0
287,6.014770296074528e+30,5979334.928942936,7.169389221579923e+19,0.0
288,6.016551643007917e+30,6028510.722673947,2.7825252285338345e+19,0.0
289,6.014453029496688e+30,5972695.152718601,7.964067383894334e+19,0.0
290,6.010366904504607e+30,5908985.716527723,1.8458158554985408e+20,0.0
291,6.01107183011477e+30,5918084.044884487,1.661784791768475e+20,0.0
292,6.011710316317055e+30,5926834.472029937,1.496082828965845e+20,0.0
293,6.016948797412611e+30,6045245.097877671,1.826720488329366e+19,0.0
294,6.006738405158427e+30,5868854.346561475,2.809202754068653e+20,0.0
295,6.015550889914525e+30,5997736.583679496,5.2299763226291634e+19,0.0
296,6.015762715302085e+30,6003395.460827081,4.707944805209413e+19,0.0
297,6.015762715302085e+30,6003395.460827081,4.707944805209413e+19,0.0
298,6.013285655400123e+30,5951119.590665737,1.0916083913275595e+20,0.0
299,6.013714355793105e+30,5958597.869055404,9.827146862582135e+19,0.0
300,6.014770296074528e+30,5979334.928942936,7.169389221579923e+19,0.0
301,6.016283206200113e+30,6019068.363432242,3.434041876268193e+19,0.0
302,6.013714355793105e+30,5958597.869055404,9.827146862582135e+19,0.0
303,6.016424264472145e+30,6023885.049677355,3.0911769230487618e+19,0.0
304,6.014102206956836e+30,5965786.205869841,8.846742977958134e+19,0.0
305,6.011710316317055e+30,5926834.472029937,1.496082828965845e+20,0.0
306,6.009588824399657e+30,5899526.814887167,2.0501999153766957e+20,0.0
307,6.002918403064998e+30,5834444.372927398,3.8486665662501696e+20,0.0
308,6.017349614994914e+30,6068695.268849202,8.744552381821258e+18,0.0
309,6.01107183011477e+30,5918084.044884487,1.661784791768475e+20,0.0
310,6.012811904054108e+30,5943340.480373938,1.2125551260271749e+20,0.0
311,6.016424264472145e+30,6023885.049677355,3.0911769230487618e+19,0.0
312,6.011710316317055e+30,5926834.472029937,1.496082828965845e+20,0.0
313,6.012811904054108e+30,5943340.480373938,1.2125551260271749e+20,0.0
314,6.01107183011477e+30,5918084.044884487,1.661784791768475e+20,0.0
315,6.01228848281974e+30,5935249.302901699,1.3468869498956074e+20,0.0
316,6.016127020831962e+30,6014053.12268462,3.81490882198401e+19,0.0
317,6.012811904054108e+30,5943340.480373938,1.2125551260271749e+20,0.0
318,6.014453029496688e+30,5972695.152718601,7.964067383894334e+19,0.0
319,6.016666653047539e+30,6032952.661967221,2.5046753860937822e+19,0.0
320,6.015954111195525e+30,6008831.517258787,4.237985480374223e+19,0.0
321,6.011710316317055e+30,5926834.472029937,1.496082828965845e+20,0.0
322,6.015762715302085e+30,6003395.460827081,4.707944805209413e+19,0.0
323,6.013714355793105e+30,5958597.869055404,9.827146862582135e+19,0.0
324,6.016424264472145e+30,6023885.049677355,3.0911769230487618e+19,0.0
325,6.017308463404362e+30,6065742.815780126,9.71513389714439e+18,0.0
326,6.013285655400123e+30,5951119.590665737,1.0916083913275595e+20,0.0
327,6.016127020831962e+30,6014053.12268462,3.81490882198401e+19,0.0
328,6.006738405158427e+30,5868854.346561475,2.809202754068653e+20,0.0
329,6.015057161875266e+30,5985715.428251033,6.453945105232895e+19,0.0
330,6.016283206200113e+30,6019068.363432242,3.434041876268193e+19,0.0
331,6.016551643007917e+30,6028510.722673947,2.7825252285338345e+19,0.0
332,6.006738405158427e+30,5868854.346561475,2.809202754068653e+20,0.0
333,6.015316492563164e+30,5991846.225511645,5.8098431201069466e+19,0.0
334,6.009588824399657e+30,5899526.814887167,2.0501999153766957e+20,0.0
335,6.005586655122874e+30,5857818.932316519,3.1200802073192366e+20,0.0
336,6.008730225088642e+30,5889694.296052041,2.2771838111614874e+20,0.0
337,6.014453029496688e+30,5972695.152718601,7.964067383894334e+19,0.0
338,6.014770296074528e+30,5979334.928942936,7.169389221579923e+19,0.0
339,6.010366904504607e+30,5908985.716527723,1.8458158554985408e+20,0.0
340,6.010366904504607e+30,5908985.716527723,1.8458158554985408e+20,0.0
341,6.013714355793105e+30,5958597.869055404,9.827146862582135e+19,0.0
342,6.013285655400123e+30,5951119.590665737,1.0916083913275595e+20,0.0
343,6.016770482199806e+30,6037217.8925734265,2.2545557910666375e+19,0.0
344,6.016127020831962e+30,6014053.12268462,3.81490882198401e+19,0.0
345,6.016127020831962e+30,6014053.12268462,3.81490882198401e+19,0.0
346,6.016948797412611e+30,6045245.097877671,1.826720488329366e+19,0.0
347,6.014102206956836e+30,5965786.205869841,8.846742977958134e+19,0.0
348,6.011710316317055e+30,5926834.472029937,1.496082828965845e+20,0.0
349,6.016127020831962e+30,6014053.12268462,3.81490882198401e+19,0.0
350,6.017094024852355e+30,6052643.717549747,1.4800393828153938e+19,0.0
351,6.015316492563164e+30,5991846.225511645,5.8098431201069466e+19,0.0
352,6.013285655400123e+30,5951119.590665737,1.0916083913275595e+20,0.0
353,6.008730225088642e+30,5889694.296052041,2.2771838111614874e+20,0.0
354,6.017678961979003e+30,6108054.451682215,1.0646419849760499e+18,0.0
355,6.011710316317055e+30,5926834.472029937,1.496082828965845e+20,0.0
356,6.014453029496688e+30,5972695.152718601,7.964067383894334e+19,0.0
357,6.015316492563164e+30,5991846.225511645,5.8098431201069466e+19,0.0
358,6.010366904504607e+30,5908985.716527723,1.8458158554985408e+20,0.0
359,6.016283206200113e+30,6019068.363432242,3.434041876268193e+19,0.0
360,6.007783033567314e+30,5879474.739968258,2.5292618079489285e+20,0.0
361,6.014102206956836e+30,5965786.205869841,8.846742977958134e+19,0.0
362,6.01228848281974e+30,5935249.302901699,1.3468869498956074e+20,0.0
363,6.010366904504607e+30,5908985.716527723,1.8458158554985408e+20,0.0
364,6.015954111195525e+30,6008831.517258787,4.237985480374223e+19,0.0
365,6.015954111195525e+30,6008831.517258787,4.237985480374223e+19,0.0
366,6.013714355793105e+30,5958597.869055404,9.827146862582135e+19,0.0
367,6.013285655400123e+30,5951119.590665737,1.0916083913275595e+20,0.0
368,6.017025138014303e+30,6049019.913837977,1.6442728256101835e+19,0.0
369,6.015954111195525e+30,6008831.517258787,4.237985480374223e+19,0.0
370,6.013285655400123e+30,5951119.590665737,1.0916083913275595e+20,0.0
371,6.015057161875266e+30,5985715.428251033,6.453945105232895e+19,0.0
372,6.007783033567314e+30,5879474.739968258,2.5292618079489285e+20,0.0
373,6.015762715302085e+30,6003395.460827081,4.707944805209413e+19,0.0
374,6.016127020831962e+30,6014053.12268462,3.81490882198401e+19,0.0
375,6.016424264472145e+30,6023885.049677355,3.0911769230487618e+19,0.0
376,6.017094024852355e+30,6052643.717549747,1.4800393828153938e+19,0.0
377,6.013714355793105e+30,5958597.869055404,9.827146862582135e+19,0.0
378,6.01228848281974e+30,5935249.302901699,1.3468869498956074e+20,0.0
379,6.015762715302085e+30,6003395.460827081,4.707944805209413e+19,0.0
380,6.010366904504607e+30,5908985.716527723,1.8458158554985408e+20,0.0
381,6.016551643007917e+30,6028510.722673947,2.7825252285338345e+19,0.0
382,6.014770296074528e+30,5979334.928942936,7.169389221579923e+19,0.0
383,6.012811904054108e+30,5943340.480373938,1.2125551260271749e+20,0.0
384,6.005586655122874e+30,5857818.932316519,3.1200802073192366e+20,0.0
385,6.013285655400123e+30,5951119.590665737,1.0916083913275595e+20,0.0
386,6.014102206956836e+30,5965786.205869841,8.846742977958134e+19,0.0
387,6.016127020831962e+30,6014053.12268462,3.81490882198401e+19,0.0
388,6.015762715302085e+30,6003395.460827081,4.707944805209413e+19,0.0
389,6.009588824399657e+30,5899526.814887167,2.0501999153766957e+20,0.0
390,6.012811904054108e+30,5943340.480373938,1.2125551260271749e+20,0.0
391,6.016424264472145e+30,6023885.049677355,3.0911769230487618e+19,0.0
392,6.006738405158427e+30,5868854.346561475,2.809202754068653e+20,0.0
393,6.014453029496688e+30,5972695.152718601,7.964067383894334e+19,0.0
394,6.012811904054108e+30,5943340.480373938,1.2125551260271749e+20,0.0
395,6.014770296074528e+30,5979334.928942936,7.169389221579923e+19,0.0
396,6.008730225088642e+30,5889694.296052041,2.2771838111614874e+20,0.0
397,6.014102206956836e+30,5965786.205869841,8.846742977958134e+19,0.0
398,6.013714355793105e+30,5958597.869055404,9.827146862582135e+19,0.0
399,6.015316492563164e+30,5991846.225511645,5.8098431201069466e+19,0.0
400,6.016424264472145e+30,6023885.049677355,3.0911769230487618e+19,0.0
401,6.015954111195525e+30,6008831.517258787,4.237985480374223e+19,0.0
402,6.016770482199806e+30,6037217.8925734265,2.2545557910666375e+19,0.0
403,6.016666653047539e+30,6032952.661967221,2.5046753860937822e+19,0.0
404,6.011710316317055e+30,5926834.472029937,1.496082828965845e+20,0.0
405,6.01228848281974e+30,5935249.302901699,1.3468869498956074e+20,0.0
406,6.016948797412611e+30,6045245.097877671,1.826720488329366e+19,0.0
407,6.011710316317055e+30,5926834.472029937,1.496082828965845e+20,0.0
408,6.014453029496688e+30,5972695.152718601,7.964067383894334e+19,0.0
409,6.013285655400123e+30,5951119.590665737,1.0916083913275595e+20,0.0
410,6.010366904504607e+30,5908985.716527723,1.8458158554985408e+20,0.0
411,6.013714355793105e+30,5958597.869055404,9.827146862582135e+19,0.0
412,6.005586655122874e+30,5857818.932316519,3.1200802073192366e+20,0.0
413,6.009588824399657e+30,5899526.814887167,2.0501999153766957e+20,0.0
414,6.01228848281974e+30,5935249.302901699,1.3468869498956074e+20,0.0
415,6.017262836821855e+30,6062666.577136279,1.0793394350676365e+19,0.0
416,6.016424264472145e+30,6023885.049677355,3.0911769230487618e+19,0.0
417,6.014770296074528e+30,5979334.928942936,7.169389221579923e+19,0.0
418,6.009588824399657e+30,5899526.814887167,2.0501999153766957e+20,0.0
419,6.012811904054108e+30,5943340.480373938,1.2125551260271749e+20,0.0
420,6.014453029496688e+30,5972695.152718601,7.964067383894334e+19,0.0
421,6.007783033567314e+30,5879474.739968258,2.5292618079489285e+20,0.0
422,6.014102206956836e+30,5965786.205869841,8.846742977958134e+19,0.0
423,6.017025138014303e+30,6049019.913837977,1.6442728256101835e+19,0.0
424,6.01228848281974e+30,5935249.302901699,1.3468869498956074e+20,0.0
425,6.01228848281974e+30,5935249.302901699,1.3468869498956074e+20,0.0
426,6.016424264472145e+30,6023885.049677355,3.0911769230487618e+19,0.0
427,6.016864205826186e+30,6041313.1921121245,2.02940084040304e+19,0.0
428,6.009588824399657e+30,5899526.814887167,2.0501999153766957e+20,0.0
429,6.016127020831962e+30,6014053.12268462,3.81490882198401e+19,0.0
430,6.017562124974321e+30,6088405.101219306,3.7669194178181396e+18,0.0
431,6.015057161875266e+30,5985715.428251033,6.453945105232895e+19,0.0
432,6.016283206200113e+30,6019068.363432242,3.434041876268193e+19,0.0
433,6.016424264472145e+30,6023885.049677355,3.0911769230487618e+19,0.0
434,6.014453029496688e+30,5972695.152718601,7.964067383894334e+19,0.0
435,6.006738405158427e+30,5868854.346561475,2.809202754068653e+20,0.0
436,6.015057161875266e+30,5985715.428251033,6.453945105232895e+19,0.0
437,6.014453029496688e+30,5972695.152718601,7.964067383894334e+19,0.0
438,6.01228848281974e+30,5935249.302901699,1.3468869498956074e+20,0.0
439,6.015316492563164e+30,5991846.225511645,5.8098431201069466e+19,0.0
440,6.016127020831962e+30,6014053.12268462,3.81490882198401e+19,0.0
441,6.009588824399657e+30,5899526.814887167,2.0501999153766957e+20,0.0
442,6.01107183011477e+30,5918084.044884487,1.661784791768475e+20,0.0
443,6.011710316317055e+30,5926834.472029937,1.496082828965845e+20,0.0
444,6.016424264472145e+30,6023885.049677355,3.0911769230487618e+19,0.0
445,6.009588824399657e+30,5899526.814887167,2.0501999153766957e+20,0.0
446,6.011710316317055e+30,5926834.472029937,1.496082828965845e+20,0.0
447,6.017450370817029e+30,6076857.600916444,6.376656256480266e+18,0.0
448,6.015954111195525e+30,6008831.517258787,4.237985480374223e+19,0.0
449,6.015954111195525e+30,6008831.517258787,4.237985480374223e+19,0.0
450,6.016551643007917e+30,6028510.722673947,2.7825252285338345e+19,0.0
451,6.015316492563164e+30,5991846.225511645,5.8098431201069466e+19,0.0
452,6.006738405158427e+30,5868854.346561475,2.809202754068653e+20,0.0
453,6.015057161875266e+30,5985715.428251033,6.453945105232895e+19,0.0
454,6.017349614994914e+30,6068695.268849202,8.744552381821258e+18,0.0
455,6.010366904504607e+30,5908985.716527723,1.8458158554985408e+20,0.0
456,6.013714355793105e+30,5958597.869055404,9.827146862582135e+19,0.0
457,6.012811904054108e+30,5943340.480373938,1.2125551260271749e+20,0.0
458,6.013285655400123e+30,5951119.590665737,1.0916083913275595e+20,0.0
459,6.014102206956836e+30,5965786.205869841,8.846742977958134e+19,0.0
460,6.011710316317055e+30,5926834.472029937,1.496082828965845e+20,0.0
461,6.012811904054108e+30,5943340.480373938,1.2125551260271749e+20,0.0
462,6.010366904504607e+30,5908985.716527723,1.8458158554985408e+20,0.0
463,6.004317184956984e+30,5846353.927339612,3.4653058522731656e+20,0.0
464,6.014102206956836e+30,5965786.205869841,8.846742977958134e+19,0.0
465,6.010366904504607e+30,5908985.716527723,1.8458158554985408e+20,0.0
466,6.01228848281974e+30,5935249.302901699,1.3468869498956074e+20,0.0
467,6.014102206956836e+30,5965786.205869841,8.846742977958134e+19,0.0
468,6.013285655400123e+30,5951119.590665737,1.0916083913275595e+20,0.0
469,6.013714355793105e+30,5958597.869055404,9.827146862582135e+19,0.0
470,6.015954111195525e+30,6008831.517258787,4.237985480374223e+19,0.0
471,6.016283206200113e+30,6019068.363432242,3.434041876268193e+19,0.0
472,6.014770296074528e+30,5979334.928942936,7.169389221579923e+19,0.0
473,6.007783033567314e+30,5879474.739968258,2.5292618079489285e+20,0.0
474,6.013714355793105e+30,5958597.869055404,9.827146862582135e+19,0.0
475,6.016127020831962e+30,6014053.12268462,3.81490882198401e+19,0.0
476,6.013714355793105e+30,5958597.869055404,9.827146862582135e+19,0.0
477,6.014770296074528e+30,5979334.928942936,7.169389221579923e+19,0.0
478,6.017308463404362e+30,6065742.815780126,9.71513389714439e+18,0.0
479,6.017562124974321e+30,6088405.101219306,3.7669194178181396e+18,0.0
480,6.014453029496688e+30,5972695.152718601,7.964067383894334e+19,0.0
481,6.016127020831962e+30,6014053.12268462,3.81490882198401e+19,0.0
482,6.01228848281974e+30,5935249.302901699,1.3468869498956074e+20,0.0
483,6.010366904504607e+30,5908985.716527723,1.8458158554985408e+20,0.0
484,6.016666653047539e+30,6032952.661967221,2.5046753860937822e+19,0.0
485,6.014770296074528e+30,5979334.928942936,7.169389221579923e+19,0.0
486,6.012811904054108e+30,5943340.480373938,1.2125551260271749e+20,0.0
487,6.014102206956836e+30,5965786.205869841,8.846742977958134e+19,0.0
488,6.014453029496688e+30,5972695.152718601,7.964067383894334e+19,0.0
489,6.014102206956836e+30,5965786.205869841,8.846742977958134e+19,0.0
490,6.016551643007917e+30,6028510.722673947,2.7825252285338345e+19,0.0
491,6.014102206956836e+30,5965786.205869841,8.846742977958134e+19,0.0
492,6.009588824399657e+30,5899526.814887167,2.0501999153766957e+20,0.0
493,6.014102206956836e+30,5965786.205869841,8.846742977958134e+19,0.0
494,6.012811904054108e+30,5943340.480373938,1.2125551260271749e+20,0.0
495,6.013714355793105e+30,5958597.869055404,9.827146862582135e+19,0.0
496,6.013285655400123e+30,5951119.590665737,1.0916083913275595e+20,0.0
497,6.014102206956836e+30,5965786.205869841,8.846742977958134e+19,0.0
498,6.015762715302085e+30,6003395.460827081,4.707944805209413e+19,0.0
499,6.012811904054108e+30,5943340.480373938,1.2125551260271749e+20,0.0
500,6.015057161875266e+30,5985715.428251033,6.453945105232895e+19,0.0
501,6.016770482199806e+30,6037217.8925734265,2.2545557910666375e+19,0.0
502,6.017420193993892e+30,6074248.071420145,7.084506750153142e+18,0.0
503,6.013285655400123e+30,5951119.590665737,1.0916083913275595e+20,0.0
504,6.017156179134622e+30,6056122.366980544,1.332202887593323e+19,0.0
505,6.01228848281974e+30,5935249.302901699,1.3468869498956074e+20,0.0
506,6.013285655400123e+30,5951119.590665737,1.0916083913275595e+20,0.0
507,6.014102206956836e+30,5965786.205869841,8.846742977958134e+19,0.0
508,6.011710316317055e+30,5926834.472029937,1.496082828965845e+20,0.0
509,6.01107183011477e+30,5918084.044884487,1.661784791768475e+20,0.0
510,6.011710316317055e+30,5926834.472029937,1.496082828965845e+20,0.0
511,6.006738405158427e+30,5868854.346561475,2.809202754068653e+20,0.0
512,6.017262836821855e+30,6062666.577136279,1.0793394350676365e+19,0.0
513,6.017308463404362e+30,6065742.815780126,9.71513389714439e+18,0.0
514,6.017661758821796e+30,6104019.835976978,1.4602023555208049e+18,0.0
515,6.015954111195525e+30,6008831.517258787,4.237985480374223e+19,0.0
516,6.017562124974321e+30,6088405.101219306,3.7669194178181396e+18,0.0
517,6.015762715302085e+30,6003395.460827081,4.707944805209413e+19,0.0
518,6.013285655400123e+30,5951119.590665737,1.0916083913275595e+20,0.0
519,6.017025138014303e+30,6049019.913837977,1.6442728256101835e+19,0.0
520,6.017308463404362e+30,6065742.815780126,9.71513389714439e+18,0.0
521,6.013285655400123e+30,5951119.590665737,1.0916083913275595e+20,0.0
522,6.012811904054108e+30,5943340.480373938,1.2125551260271749e+20,0.0
523,6.016770482199806e+30,6037217.8925734265,2.2545557910666375e+19,0.0
524,6.01107183011477e+30,5918084.044884487,1.661784791768475e+20,0.0
525,6.014770296074528e+30,5979334.928942936,7.169389221579923e+19,0.0
526,6.01228848281974e+30,5935249.302901699,1.3468869498956074e+20,0.0
527,6.015057161875266e+30,5985715.428251033,6.453945105232895e+19,0.0
528,6.007783033567314e+30,5879474.739968258,2.5292618079489285e+20,0.0
529,6.015316492563164e+30,5991846.225511645,5.8098431201069466e+19,0.0
530,6.015550889914525e+30,5997736.583679496,5.2299763226291634e+19,0.0
531,6.016551643007917e+30,6028510.722673947,2.7825252285338345e+19,0.0
532,6.013714355793105e+30,5958597.869055404,9.827146862582135e+19,0.0
533,6.017262836821855e+30,6062666.577136279,1.0793394350676365e+19,0.0
534,6.015550889914525e+30,5997736.583679496,5.2299763226291634e+19,0.0
535,6.014770296074528e+30,5979334.928942936,7.169389221579923e+19,0.0
536,6.016551643007917e+30,6028510.722673947,2.7825252285338345e+19,0.0
537,6.010366904504607e+30,5908985.716527723,1.8458158554985408e+20,0.0
538,6.015057161875266e+30,5985715.428251033,6.453945105232895e+19,0.0
539,6.013714355793105e+30,5958597.869055404,9.827146862582135e+19,0.0
540,6.006738405158427e+30,5868854.346561475,2.809202754068653e+20,0.0
541,6.015550889914525e+30,5997736.583679496,5.2299763226291634e+19,0.0
542,6.015954111195525e+30,6008831.517258787,4.237985480374223e+19,0.0
543,6.010366904504607e+30,5908985.716527723,1.8458158554985408e+20,0.0
544,6.015762715302085e+30,6003395.460827081,4.707944805209413e+19,0.0
545,6.009588824399657e+30,5899526.814887167,2.0501999153766957e+20,0.0
546,6.009588824399657e+30,5899526.814887167,2.0501999153766957e+20,0.0
547,6.01721225316775e+30,6059461.507229098,1.1991272326345535e+19,0.0
548,6.015550889914525e+30,5997736.583679496,5.2299763226291634e+19,0.0
549,6.015954111195525e+30,6008831.517258787,4.237985480374223e+19,0.0
550,6.011710316317055e+30,5926834.472029937,1.496082828965845e+20,0.0
551,6.01228848281974e+30,5935249.302901699,1.3468869498956074e+20,0.0
552,6.016770482199806e+30,6037217.8925734265,2.2545557910666375e+19,0.0
553,6.01107183011477e+30,5918084.044884487,1.661784791768475e+20,0.0
554,6.016948797412611e+30,6045245.097877671,1.826720488329366e+19,0.0
555,6.016864205826186e+30,6041313.1921121245,2.02940084040304e+19,0.0
556,6.014453029496688e+30,5972695.152718601,7.964067383894334e+19,0.0
557,6.006738405158427e+30,5868854.346561475,2.809202754068653e+20,0.0
558,6.009588824399657e+30,5899526.814887167,2.0501999153766957e+20,0.0
559,6.014102206956836e+30,5965786.205869841,8.846742977958134e+19,0.0
560,6.013714355793105e+30,5958597.869055404,9.827146862582135e+19,0.0
561,6.012811904054108e+30,5943340.480373938,1.2125551260271749e+20,0.0
562,6.015316492563164e+30,5991846.225511645,5.8098431201069466e+19,0.0
563,6.015316492563164e+30,5991846.225511645,5.8098431201069466e+19,0.0
564,6.012811904054108e+30,5943340.480373938,1.2125551260271749e+20,0.0
565,6.008730225088642e+30,5889694.296052041,2.2771838111614874e+20,0.0
566,6.01107183011477e+30,5918084.044884487,1.661784791768475e+20,0.0
567,6.012811904054108e+30,5943340.480373938,1.2125551260271749e+20,0.0
568,6.008730225088642e+30,5889694.296052041,2.2771838111614874e+20,0.0
569,6.01721225316775e+30,6059461.507229098,1.1991272326345535e+19,0.0
570,6.017606070528194e+30,6094269.976415475,2.746664393831049e+18,0.0
571,6.009588824399657e+30,5899526.814887167,2.0501999153766957e+20,0.0
572,6.015550889914525e+30,5997736.583679496,5.2299763226291634e+19,0.0
573,6.011710316317055e+30,5926834.472029937,1.496082828965845e+20,0.0
574,6.015316492563164e+30,5991846.225511645,5.8098431201069466e+19,0.0
575,6.015316492563164e+30,5991846.225511645,5.8098431201069466e+19,0.0
576,6.01107183011477e+30,5918084.044884487,1.661784791768475e+20,0.0
577,6.011710316317055e+30,5926834.472029937,1.496082828965845e+20,0.0
578,6.014453029496688e+30,5972695.152718601,7.964067383894334e+19,0.0
579,6.005586655122874e+30,5857818.932316519,3.1200802073192366e+20,0.0
580,6.016666653047539e+30,6032952.661967221,2.5046753860937822e+19,0.0
581,6.015316492563164e+30,5991846.225511645,5.8098431201069466e+19,0.0
582,6.009588824399657e+30,5899526.814887167,2.0501999153766957e+20,0.0
583,6.007783033567314e+30,5879474.739968258,2.5292618079489285e+20,0.0
584,6.017025138014303e+30,6049019.913837977,1.6442728256101835e+19,0.0
585,6.014770296074528e+30,5979334.928942936,7.169389221579923e+19,0.0
586,6.014102206956836e+30,5965786.205869841,8.846742977958134e+19,0.0
587,6.01107183011477e+30,5918084.044884487,1.661784791768475e+20,0.0
588,6.007783033567314e+30,5879474.739968258,2.5292618079489285e+20,0.0
589,6.016666653047539e+30,6032952.661967221,2.5046753860937822e+19,0.0
590,6.010366904504607e+30,5908985.716527723,1.8458158554985408e+20,0.0
591,6.015762715302085e+30,6003395.460827081,4.707944805209413e+19,0.0
592,6.014102206956836e+30,5965786.205869841,8.846742977958134e+19,0.0
593,6.015954111195525e+30,6008831.517258787,4.237985480374223e+19,0.0
594,6.015954111195525e+30,6008831.517258787,4.237985480374223e+19,0.0
595,6.014102206956836e+30,5965786.205869841,8.846742977958134e+19,0.0
596,6.017578320089918e+30,6090441.616930078,3.390476204807076e+18,0.0
597,6.012811904054108e+30,5943340.480373938,1.2125551260271749e+20,0.0
598,6.015550889914525e+30,5997736.583679496,5.2299763226291634e+19,0.0
599,6.008730225088642e+30,5889694.296052041,2.2771838111614874e+20,0.0
600,6.007783033567314e+30,5879474.739968258,2.5292618079489285e+20,0.0
601,6.014453029496688e+30,5972695.152718601,7.964067383894334e+19,0.0
602,6.013285655400123e+30,5951119.590665737,1.0916083913275595e+20,0.0
603,6.017628606802573e+30,6097793.478885326,2.2250803903540652e+18,0.0
604,6.016666653047539e+30,6032952.661967221,2.5046753860937822e+19,0.0
605,6.016770482199806e+30,6037217.8925734265,2.2545557910666375e+19,0.0
606,6.014453029496688e+30,5972695.152718601,7.964067383894334e+19,0.0
607,6.015550889914525e+30,5997736.583679496,5.2299763226291634e+19,0.0
608,6.016127020831962e+30,6014053.12268462,3.81490882198401e+19,0.0
609,6.013714355793105e+30,5958597.869055404,9.827146862582135e+19,0.0
610,6.008730225088642e+30,5889694.296052041,2.2771838111614874e+20,0.0
611,6.012811904054108e+30,5943340.480373938,1.2125551260271749e+20,0.0
612,6.01107183011477e+30,5918084.044884487,1.661784791768475e+20,0.0
613,6.01228848281974e+30,5935249.302901699,1.3468869498956074e+20,0.0
614,6.008730225088642e+30,5889694.296052041,2.2771838111614874e+20,0.0
615,6.013714355793105e+30,5958597.869055404,9.827146862582135e+19,0.0
616,6.015954111195525e+30,6008831.517258787,4.237985480374223e+19,0.0
617,6.015954111195525e+30,6008831.517258787,4.237985480374223e+19,0.0
618,6.014453029496688e+30,5972695.152718601,7.964067383894334e+19,0.0
619,6.011710316317055e+30,5926834.472029937,1.496082828965845e+20,0.0
620,6.015762715302085e+30,6003395.460827081,4.707944805209413e+19,0.0
621,6.017420193993892e+30,6074248.071420145,7.084506750153142e+18,0.0
622,6.015762715302085e+30,6003395.460827081,4.707944805209413e+19,0.0
623,6.01107183011477e+30,5918084.044884487,1.661784791768475e+20,0.0
624,6.011710316317055e+30,5926834.472029937,1.496082828965845e+20,0.0
625,6.007783033567314e+30,5879474.739968258,2.5292618079489285e+20,0.0
626,6.016551643007917e+30,6028510.722673947,2.7825252285338345e+19,0.0
627,6.007783033567314e+30,5879474.739968258,2.5292618079489285e+20,0.0
628,6.007783033567314e+30,5879474.739968258,2.5292618079489285e+20,0.0
629,6.017025138014303e+30,6049019.913837977,1.6442728256101835e+19,0.0
630,6.016948797412611e+30,6045245.097877671,1.826720488329366e+19,0.0
631,6.013285655400123e+30,5951119.590665737,1.0916083913275595e+20,0.0
632,6.014770296074528e+30,5979334.928942936,7.169389221579923e+19,0.0
633,6.01228848281974e+30,5935249.302901699,1.3468869498956074e+20,0.0
634,6.017262836821855e+30,6062666.577136279,1.0793394350676365e+19,0.0
635,6.016770482199806e+30,6037217.8925734265,2.2545557910666375e+19,0.0
636,6.015316492563164e+30,5991846.225511645,5.8098431201069466e+19,0.0
637,6.017592916236875e+30,6092395.475071882,3.051643328517332e+18,0.0
638,6.016127020831962e+30,6014053.12268462,3.81490882198401e+19,0.0
639,6.007783033567314e+30,5879474.739968258,2.5292618079489285e+20,0.0
640,6.01228848281974e+30,5935249.302901699,1.3468869498956074e+20,0.0
641,6.017025138014303e+30,6049019.913837977,1.6442728256101835e+19,0.0
642,6.016551643007917e+30,6028510.722673947,2.7825252285338345e+19,0.0
643,6.006738405158427e+30,5868854.346561475,2.809202754068653e+20,0.0
644,6.009588824399657e+30,5899526.814887167,2.0501999153766957e+20,0.0
645,6.01107183011477e+30,5918084.044884487,1.661784791768475e+20,0.0
646,6.009588824399657e+30,5899526.814887167,2.0501999153766957e+20,0.0
647,6.015057161875266e+30,5985715.428251033,6.453945105232895e+19,0.0
648,6.010366904504607e+30,5908985.716527723,1.8458158554985408e+20,0.0
649,6.005586655122874e+30,5857818.932316519,3.1200802073192366e+20,0.0
650,6.015762715302085e+30,6003395.460827081,4.707944805209413e+19,0.0
651,6.014453029496688e+30,5972695.152718601,7.964067383894334e+19,0.0
652,6.011710316317055e+30,5926834.472029937,1.496082828965845e+20,0.0
653,6.017683598479541e+30,6109291.038940097,9.58220387601293e+17,0.0
654,6.010366904504607e+30,5908985.716527723,1.8458158554985408e+20,0.0
655,6.005586655122874e+30,5857818.932316519,3.1200802073192366e+20,0.0
656,6.017094024852355e+30,6052643.717549747,1.4800393828153938e+19,0.0
657,6.015316492563164e+30,5991846.225511645,5.8098431201069466e+19,0.0
658,6.016770482199806e+30,6037217.8925734265,2.2545557910666375e+19,0.0
659,6.009588824399657e+30,5899526.814887167,2.0501999153766957e+20,0.0
660,6.012811904054108e+30,5943340.480373938,1.2125551260271749e+20,0.0
661,6.01228848281974e+30,5935249.302901699,1.3468869498956074e+20,0.0
662,6.01228848281974e+30,5935249.302901699,1.3468869498956074e+20,0.0
663,6.014453029496688e+30,5972695.152718601,7.964067383894334e+19,0.0
664,6.015550889914525e+30,5997736.583679496,5.2299763226291634e+19,0.0
665,6.013714355793105e+30,5958597.869055404,9.827146862582135e+19,0.0
666,6.014102206956836e+30,5965786.205869841,8.846742977958134e+19,0.0
667,6.011710316317055e+30,5926834.472029937,1.496082828965845e+20,0.0
668,6.01721225316775e+30,6059461.507229098,1.1991272326345535e+19,0.0
669,6.013714355793105e+30,5958597.869055404,9.827146862582135e+19,0.0
670,6.016283206200113e+30,6019068.363432242,3.434041876268193e+19,0.0
671,6.011710316317055e+30,5926834.472029937,1.496082828965845e+20,0.0
672,6.016424264472145e+30,6023885.049677355,3.0911769230487618e+19,0.0
673,6.016127020831962e+30,6014053.12268462,3.81490882198401e+19,0.0
674,6.015316492563164e+30,5991846.225511645,5.8098431201069466e+19,0.0
675,6.017717751971784e+30,6123420.2932712175,1.7765031675621373e+17,0.0
676,6.014102206956836e+30,5965786.205869841,8.846742977958134e+19,0.0
677,6.010366904504607e+30,5908985.716527723,1.8458158554985408e+20,0.0
678,6.01228848281974e+30,5935249.302901699,1.3468869498956074e+20,0.0
679,6.017025138014303e+30,6049019.913837977,1.6442728256101835e+19,0.0
680,6.015057161875266e+30,5985715.428251033,6.453945105232895e+19,0.0
681,6.01107183011477e+30,5918084.044884487,1.661784791768475e+20,0.0
682,6.017450370817029e+30,6076857.600916444,6.376656256480266e+18,0.0
683,6.011710316317055e+30,5926834.472029937,1.496082828965845e+20,0.0
684,6.006738405158427e+30,5868854.346561475,2.809202754068653e+20,0.0
685,6.013714355793105e+30,5958597.869055404,9.827146862582135e+19,0.0
686,6.014453029496688e+30,5972695.152718601,7.964067383894334e+19,0.0
687,6.015954111195525e+30,6008831.517258787,4.237985480374223e+19,0.0
688,6.012811904054108e+30,5943340.480373938,1.2125551260271749e+20,0.0
689,6.016283206200113e+30,6019068.363432242,3.434041876268193e+19,0.0
690,6.012811904054108e+30,5943340.480373938,1.2125551260271749e+20,0.0
691,6.010366904504607e+30,5908985.716527723,1.8458158554985408e+20,0.0
692,6.006738405158427e+30,5868854.346561475,2.809202754068653e+20,0.0
693,6.016283206200113e+30,6019068.363432242,3.434041876268193e+19,0.0
694,6.015550889914525e+30,5997736.583679496,5.2299763226291634e+19,0.0
695,6.014453029496688e+30,5972695.152718601,7.964067383894334e+19,0.0
696,6.016948797412611e+30,6045245.097877671,1.826720488329366e+19,0.0
697,6.014102206956836e+30,5965786.205869841,8.846742977958134e+19,0.0
698,6.016551643007917e+30,6028510.722673947,2.7825252285338345e+19,0.0
699,6.01107183011477e+30,5918084.044884487,1.661784791768475e+20,0.0
700,6.015057161875266e+30,5985715.428251033,6.453945105232895e+19,0.0
701,6.01228848281974e+30,5935249.302901699,1.3468869498956074e+20,0.0
702,6.008730225088642e+30,5889694.296052041,2.2771838111614874e+20,0.0
703,6.015316492563164e+30,5991846.225511645,5.8098431201069466e+19,0.0
704,6.010366904504607e+30,5908985.716527723,1.8458158554985408e+20,0.0
705,6.017349614994914e+30,6068695.268849202,8.744552381821258e+18,0.0
706,6.012811904054108e+30,5943340.480373938,1.2125551260271749e+20,0.0
707,6.013285655400123e+30,5951119.590665737,1.0916083913275595e+20,0.0
708,6.012811904054108e+30,5943340.480373938,1.2125551260271749e+20,0.0
709,6.01107183011477e+30,5918084.044884487,1.661784791768475e+20,0.0
710,6.012811904054108e+30,5943340.480373938,1.2125551260271749e+20,0.0
711,6.017477579083236e+30,6079361.716654416,5.739508903656227e+18,0.0
712,6.013714355793105e+30,5958597.869055404,9.827146862582135e+19,0.0
713,6.005586655122874e+30,5857818.932316519,3.1200802073192366e+20,0.0
714,6.016948797412611e+30,6045245.097877671,1.826720488329366e+19,0.0
715,6.013714355793105e+30,5958597.869055404,9.827146862582135e+19,0.0
716,6.017349614994914e+30,6068695.268849202,8.744552381821258e+18,0.0
717,6.002918403064998e+30,5834444.372927398,3.8486665662501696e+20,0.0
718,6.015550889914525e+30,5997736.583679496,5.2299763226291634e+19,0.0
719,6.015316492563164e+30,5991846.225511645,5.8098431201069466e+19,0.0
720,6.012811904054108e+30,5943340.480373938,1.2125551260271749e+20,0.0
721,6.014770296074528e+30,5979334.928942936,7.169389221579923e+19,0.0
722,6.012811904054108e+30,5943340.480373938,1.2125551260271749e+20,0.0
723,6.016770482199806e+30,6037217.8925734265,2.2545557910666375e+19,0.0
724,6.012811904054108e+30,5943340.480373938,1.2125551260271749e+20,0.0
725,6.017025138014303e+30,6049019.913837977,1.6442728256101835e+19,0.0
726,6.017721416835609e+30,6126709.724829829,9.442180703220411e+16,0.0
727,6.015550889914525e+30,5997736.583679496,5.2299763226291634e+19,0.0
728,6.008730225088642e+30,5889694.296052041,2.2771838111614874e+20,0.0
729,6.014770296074528e+30,5979334.928942936,7.169389221579923e+19,0.0
730,6.015316492563164e+30,5991846.225511645,5.8098431201069466e+19,0.0
731,6.010366904504607e+30,5908985.716527723,1.8458158554985408e+20,0.0
732,6.015550889914525e+30,5997736.583679496,5.2299763226291634e+19,0.0
733,6.009588824399657e+30,5899526.814887167,2.0501999153766957e+20,0.0
734,6.016283206200113e+30,6019068.363432242,3.434041876268193e+19,0.0
735,6.014770296074528e+30,5979334.928942936,7.169389221579923e+19,0.0
736,6.006738405158427e+30,5868854.346561475,2.809202754068653e+20,0.0
737,6.01107183011477e+30,5918084.044884487,1.661784791768475e+20,0.0
738,6.002918403064998e+30,5834444.372927398,3.8486665662501696e+20,0.0
739,6.01107183011477e+30,5918084.044884487,1.661784791768475e+20,0.0
740,6.015057161875266e+30,5985715.428251033,6.453945105232895e+19,0.0
741,6.009588824399657e+30,5899526.814887167,2.0501999153766957e+20,0.0
742,6.012811904054108e+30,5943340.480373938,1.2125551260271749e+20,0.0
743,6.016127020831962e+30,6014053.12268462,3.81490882198401e+19,0.0
744,6.016948797412611e+30,6045245.097877671,1.826720488329366e+19,0.0
745,6.011710316317055e+30,5926834.472029937,1.496082828965845e+20,0.0
746,6.011710316317055e+30,5926834.472029937,1.496082828965845e+20,0.0
747,6.017025138014303e+30,6049019.913837977,1.6442728256101835e+19,0.0
748,6.017578320089918e+30,6090441.616930078,3.390476204807076e+18,0.0
749,6.013285655400123e+30,5951119.590665737,1.0916083913275595e+20,0.0
750,6.017678961979003e+30,6108054.451682215,1.0646419849760499e+18,0.0
751,6.015762715302085e+30,6003395.460827081,4.707944805209413e+19,0.0
752,6.014453029496688e+30,5972695.152718601,7.964067383894334e+19,0.0
753,6.014102206956836e+30,5965786.205869841,8.846742977958134e+19,0.0
754,6.014102206956836e+30,5965786.205869841,8.846742977958134e+19,0.0
755,6.017628606802573e+30,6097793.478885326,2.2250803903540652e+18,0.0
756,6.015316492563164e+30,5991846.225511645,5.8098431201069466e+19,0.0
757,6.011710316317055e+30,5926834.472029937,1.496082828965845e+20,0.0
758,6.013285655400123e+30,5951119.590665737,1.0916083913275595e+20,0.0
759,6.017646904827371e+30,6101036.062059433,1.8025254510707523e+18,0.0
760,6.013285655400123e+30,5951119.590665737,1.0916083913275595e+20,0.0
761,6.01107183011477e+30,5918084.044884487,1.661784791768475e+20,0.0
762,6.01107183011477e+30,5918084.044884487,1.661784791768475e+20,0.0
763,6.015057161875266e+30,5985715.428251033,6.453945105232895e+19,0.0
764,6.013285655400123e+30,5951119.590665737,1.0916083913275595e+20,0.0
765,6.013285655400123e+30,5951119.590665737,1.0916083913275595e+20,0.0
766,6.011710316317055e+30,5926834.472029937,1.496082828965845e+20,0.0
767,6.015057161875266e+30,5985715.428251033,6.453945105232895e+19,0.0
768,6.015057161875266e+30,5985715.428251033,6.453945105232895e+19,0.0
769,6.015954111195525e+30,6008831.517258787,4.237985480374223e+19,0.0
770,6.006738405158427e+30,5868854.346561475,2.809202754068653e+20,0.0
771,6.012811904054108e+30,5943340.480373938,1.2125551260271749e+20,0.0
772,6.016283206200113e+30,6019068.363432242,3.434041876268193e+19,0.0
773,6.005586655122874e+30,5857818.932316519,3.1200802073192366e+20,0.0
774,6.013714355793105e+30,5958597.869055404,9.827146862582135e+19,0.0
775,6.014102206956836e+30,5965786.205869841,8.846742977958134e+19,0.0
776,6.015316492563164e+30,5991846.225511645,5.8098431201069466e+19,0.0
777,6.016770482199806e+30,6037217.8925734265,2.2545557910666375e+19,0.0
778,6.016864205826186e+30,6041313.1921121245,2.02940084040304e+19,0.0
779,6.006738405158427e+30,5868854.346561475,2.809202754068653e+20,0.0
780,6.013285655400123e+30,5951119.590665737,1.0916083913275595e+20,0.0
781,6.014102206956836e+30,5965786.205869841,8.846742977958134e+19,0.0
782,6.012811904054108e+30,5943340.480373938,1.2125551260271749e+20,0.0
783,6.015550889914525e+30,5997736.583679496,5.2299763226291634e+19,0.0
784,6.014102206956836e+30,5965786.205869841,8.846742977958134e+19,0.0
785,6.01107183011477e+30,5918084.044884487,1.661784791768475e+20,0.0
786,6.01228848281974e+30,5935249.302901699,1.3468869498956074e+20,0.0
787,6.015316492563164e+30,5991846.225511645,5.8098431201069466e+19,0.0
788,6.016127020831962e+30,6014053.12268462,3.81490882198401e+19,0.0
789,6.006738405158427e+30,5868854.346561475,2.809202754068653e+20,0.0
790,6.016551643007917e+30,6028510.722673947,2.7825252285338345e+19,0.0
791,6.017156179134622e+30,6056122.366980544,1.332202887593323e+19,0.0
792,6.010366904504607e+30,5908985.716527723,1.8458158554985408e+20,0.0
793,6.007783033567314e+30,5879474.739968258,2.5292618079489285e+20,0.0
794,6.006738405158427e+30,5868854.346561475,2.809202754068653e+20,0.0
795,6.01228848281974e+30,5935249.302901699,1.3468869498956074e+20,0.0
796,6.015954111195525e+30,6008831.517258787,4.237985480374223e+19,0.0
797,6.014770296074528e+30,5979334.928942936,7.169389221579923e+19,0.0
798,6.01228848281974e+30,5935249.302901699,1.3468869498956074e+20,0.0
799,6.004317184956984e+30,5846353.927339612,3.4653058522731656e+20,0.0
800,6.002918403064998e+30,5834444.372927398,3.8486665662501696e+20,0.0
801,6.016666653047539e+30,6032952.661967221,2.5046753860937822e+19,0.0
802,6.015550889914525e+30,5997736.583679496,5.2299763226291634e+19,0.0
803,6.015057161875266e+30,5985715.428251033,6.453945105232895e+19,0.0
804,6.013285655400123e+30,5951119.590665737,1.0916083913275595e+20,0.0
805,6.017502109014468e+30,6081764.588417884,5.166005540424091e+18,0.0
806,6.016127020831962e+30,6014053.12268462,3.81490882198401e+19,0.0
807,6.015762715302085e+30,6003395.460827081,4.707944805209413e+19,0.0
808,6.016864205826186e+30,6041313.1921121245,2.02940084040304e+19,0.0
809,6.017025138014303e+30,6049019.913837977,1.6442728256101835e+19,0.0
810,6.014102206956836e+30,5965786.205869841,8.846742977958134e+19,0.0
811,6.017386727288995e+30,6071528.79488941,7.870901933903437e+18,0.0
812,6.014453029496688e+30,5972695.152718601,7.964067383894334e+19,0.0
813,6.012811904054108e+30,5943340.480373938,1.2125551260271749e+20,0.0
814,6.014102206956836e+30,5965786.205869841,8.846742977958134e+19,0.0
815,6.009588824399657e+30,5899526.814887167,2.0501999153766957e+20,0.0
816,6.01107183011477e+30,5918084.044884487,1.661784791768475e+20,0.0
817,6.017156179134622e+30,6056122.366980544,1.332202887593323e+19,0.0
818,6.011710316317055e+30,5926834.472029937,1.496082828965845e+20,0.0
819,6.011710316317055e+30,5926834.472029937,1.496082828965845e+20,0.0
820,6.006738405158427e+30,5868854.346561475,2.809202754068653e+20,0.0
821,6.015057161875266e+30,5985715.428251033,6.453945105232895e+19,0.0
822,6.010366904504607e+30,5908985.716527723,1.8458158554985408e+20,0.0
823,6.013285655400123e+30,5951119.590665737,1.0916083913275595e+20,0.0
824,6.015954111195525e+30,6008831.517258787,4.237985480374223e+19,0.0
825,6.016948797412611e+30,6045245.097877671,1.826720488329366e+19,0.0
826,6.017524222702528e+30,6084070.22806474,4.649791412051306e+18,0.0
827,6.015316492563164e+30,5991846.225511645,5.8098431201069466e+19,0.0
828,6.015954111195525e+30,6008831.517258787,4.237985480374223e+19,0.0
829,6.017094024852355e+30,6052643.717549747,1.4800393828153938e+19,0.0
830,6.012811904054108e+30,5943340.480373938,1.2125551260271749e+20,0.0
831,6.017349614994914e+30,6068695.268849202,8.744552381821258e+18,0.0
832,6.015762715302085e+30,6003395.460827081,4.707944805209413e+19,0.0
833,6.016551643007917e+30,6028510.722673947,2.7825252285338345e+19,0.0
834,6.016127020831962e+30,6014053.12268462,3.81490882198401e+19,0.0
835,6.012811904054108e+30,5943340.480373938,1.2125551260271749e+20,0.0
836,6.016948797412611e+30,6045245.097877671,1.826720488329366e+19,0.0
837,6.015057161875266e+30,5985715.428251033,6.453945105232895e+19,0.0
838,6.015316492563164e+30,5991846.225511645,5.8098431201069466e+19,0.0
839,6.01107183011477e+30,5918084.044884487,1.661784791768475e+20,0.0
840,6.01228848281974e+30,5935249.302901699,1.3468869498956074e+20,0.0
841,6.008730225088642e+30,5889694.296052041,2.2771838111614874e+20,0.0
842,6.017386727288995e+30,6071528.79488941,7.870901933903437e+18,0.0
843,6.012811904054108e+30,5943340.480373938,1.2125551260271749e+20,0.0
844,6.015057161875266e+30,5985715.428251033,6.453945105232895e+19,0.0
845,6.015550889914525e+30,5997736.583679496,5.2299763226291634e+19,0.0
846,6.017502109014468e+30,6081764.588417884,5.166005540424091e+18,0.0
847,6.007783033567314e+30,5879474.739968258,2.5292618079489285e+20,0.0
848,6.016127020831962e+30,6014053.12268462,3.81490882198401e+19,0.0
849,6.014453029496688e+30,5972695.152718601,7.964067383894334e+19,0.0
850,6.016666653047539e+30,6032952.661967221,2.5046753860937822e+19,0.0
851,6.016283206200113e+30,6019068.363432242,3.434041876268193e+19,0.0
852,6.013714355793105e+30,5958597.869055404,9.827146862582135e+19,0.0
853,6.015550889914525e+30,5997736.583679496,5.2299763226291634e+19,0.0
854,6.01228848281974e+30,5935249.302901699,1.3468869498956074e+20,0.0
855,6.014102206956836e+30,5965786.205869841,8.846742977958134e+19,0.0
856,6.015954111195525e+30,6008831.517258787,4.237985480374223e+19,0.0
857,6.017502109014468e+30,6081764.588417884,5.166005540424091e+18,0.0
858,6.016424264472145e+30,6023885.049677355,3.0911769230487618e+19,0.0
859,6.015762715302085e+30,6003395.460827081,4.707944805209413e+19,0.0
860,6.014453029496688e+30,5972695.152718601,7.964067383894334e+19,0.0
861,6.013285655400123e+30,5951119.590665737,1.0916083913275595e+20,0.0
862,6.011710316317055e+30,5926834.472029937,1.496082828965845e+20,0.0
863,6.017720954493104e+30,6126217.341363943,1.0491126553013054e+17,0.0
864,6.014770296074528e+30,5979334.928942936,7.169389221579923e+19,0.0
865,6.002918403064998e+30,5834444.372927398,3.8486665662501696e+20,0.0
866,6.009588824399657e+30,5899526.814887167,2.0501999153766957e+20,0.0
867,6.016424264472145e+30,6023885.049677355,3.0911769230487618e+19,0.0
868,6.016283206200113e+30,6019068.363432242,3.434041876268193e+19,0.0
869,6.015057161875266e+30,5985715.428251033,6.453945105232895e+19,0.0
870,6.013285655400123e+30,5951119.590665737,1.0916083913275595e+20,0.0
871,6.016551643007917e+30,6028510.722673947,2.7825252285338345e+19,0.0
872,6.017661758821796e+30,6104019.835976978,1.4602023555208049e+18,0.0
873,6.016424264472145e+30,6023885.049677355,3.0911769230487618e+19,0.0
874,6.016948797412611e+30,6045245.097877671,1.826720488329366e+19,0.0
875,6.011710316317055e+30,5926834.472029937,1.496082828965845e+20,0.0
876,6.013714355793105e+30,5958597.869055404,9.827146862582135e+19,0.0
877,6.012811904054108e+30,5943340.480373938,1.2125551260271749e+20,0.0
878,6.015954111195525e+30,6008831.517258787,4.237985480374223e+19,0.0
879,6.008730225088642e+30,5889694.296052041,2.2771838111614874e+20,0.0
880,6.015954111195525e+30,6008831.517258787,4.237985480374223e+19,0.0
881,6.015550889914525e+30,5997736.583679496,5.2299763226291634e+19,0.0
882,6.009588824399657e+30,5899526.814887167,2.0501999153766957e+20,0.0
883,6.014102206956836e+30,5965786.205869841,8.846742977958134e+19,0.0
884,6.016551643007917e+30,6028510.722673947,2.7825252285338345e+19,0.0
885,6.01228848281974e+30,5935249.302901699,1.3468869498956074e+20,0.0
886,6.016127020831962e+30,6014053.12268462,3.81490882198401e+19,0.0
887,6.009588824399657e+30,5899526.814887167,2.0501999153766957e+20,0.0
888,6.01228848281974e+30,5935249.302901699,1.3468869498956074e+20,0.0
889,6.017349614994914e+30,6068695.268849202,8.744552381821258e+18,0.0
890,6.008730225088642e+30,5889694.296052041,2.2771838111614874e+20,0.0
891,6.009588824399657e+30,5899526.814887167,2.0501999153766957e+20,0.0
892,6.016127020831962e+30,6014053.12268462,3.81490882198401e+19,0.0
893,6.008730225088642e+30,5889694.296052041,2.2771838111614874e+20,0.0
894,6.012811904054108e+30,5943340.480373938,1.2125551260271749e+20,0.0
895,6.014770296074528e+30,5979334.928942936,7.169389221579923e+19,0.0
896,6.011710316317055e+30,5926834.472029937,1.496082828965845e+20,0.0
897,6.017156179134622e+30,6056122.366980544,1.332202887593323e+19,0.0
898,6.015550889914525e+30,5997736.583679496,5.2299763226291634e+19,0.0
899,6.017420193993892e+30,6074248.071420145,7.084506750153142e+18,0.0
900,6.011710316317055e+30,5926834.472029937,1.496082828965845e+20,0.0
901,6.010366904504607e+30,5908985.716527723,1.8458158554985408e+20,0.0
902,6.011710316317055e+30,5926834.472029937,1.496082828965845e+20,0.0
903,6.013714355793105e+30,5958597.869055404,9.827146862582135e+19,0.0
904,6.011710316317055e+30,5926834.472029937,1.496082828965845e+20,0.0
905,6.017562124974321e+30,6088405.101219306,3.7669194178181396e+18,0.0
906,6.017477579083236e+30,6079361.716654416,5.739508903656227e+18,0.0
907,6.016551643007917e+30,6028510.722673947,2.7825252285338345e+19,0.0
908,6.012811904054108e+30,5943340.480373938,1.2125551260271749e+20,0.0
909,6.012811904054108e+30,5943340.480373938,1.2125551260271749e+20,0.0
910,6.017502109014468e+30,6081764.588417884,5.166005540424091e+18,0.0
911,6.015550889914525e+30,5997736.583679496,5.2299763226291634e+19,0.0
912,6.016551643007917e+30,6028510.722673947,2.7825252285338345e+19,0.0
913,6.010366904504607e+30,5908985.716527723,1.8458158554985408e+20,0.0
914,6.010366904504607e+30,5908985.716527723,1.8458158554985408e+20,0.0
915,6.012811904054108e+30,5943340.480373938,1.2125551260271749e+20,0.0
916,6.013285655400123e+30,5951119.590665737,1.0916083913275595e+20,0.0
917,6.014453029496688e+30,5972695.152718601,7.964067383894334e+19,0.0
918,6.015057161875266e+30,5985715.428251033,6.453945105232895e+19,0.0
919,6.016424264472145e+30,6023885.049677355,3.0911769230487618e+19,0.0
920,6.017502109014468e+30,6081764.588417884,5.166005540424091e+18,0.0
921,6.013285655400123e+30,5951119.590665737,1.0916083913275595e+20,0.0
922,6.015954111195525e+30,6008831.517258787,4.237985480374223e+19,0.0
923,6.016666653047539e+30,6032952.661967221,2.5046753860937822e+19,0.0
924,6.015550889914525e+30,5997736.583679496,5.2299763226291634e+19,0.0
925,6.016283206200113e+30,6019068.363432242,3.434041876268193e+19,0.0
926,6.013714355793105e+30,5958597.869055404,9.827146862582135e+19,0.0
927,6.015057161875266e+30,5985715.428251033,6.453945105232895e+19,0.0
928,6.01107183011477e+30,5918084.044884487,1.661784791768475e+20,0.0
929,6.016551643007917e+30,6028510.722673947,2.7825252285338345e+19,0.0
930,6.013285655400123e+30,5951119.590665737,1.0916083913275595e+20,0.0
931,6.008730225088642e+30,5889694.296052041,2.2771838111614874e+20,0.0
932,6.017638232125572e+30,6099448.462253305,2.0026916385913362e+18,0.0
933,6.001377639491502e+30,5822074.919663735,4.274365530166321e+20,0.0
934,6.013714355793105e+30,5958597.869055404,9.827146862582135e+19,0.0
935,6.011710316317055e+30,5926834.472029937,1.496082828965845e+20,0.0
936,6.017094024852355e+30,6052643.717549747,1.4800393828153938e+19,0.0
937,6.013285655400123e+30,5951119.590665737,1.0916083913275595e+20,0.0
938,6.017156179134622e+30,6056122.366980544,1.332202887593323e+19,0.0
939,6.016948797412611e+30,6045245.097877671,1.826720488329366e+19,0.0
940,6.015762715302085e+30,6003395.460827081,4.707944805209413e+19,0.0
941,6.014102206956836e+30,5965786.205869841,8.846742977958134e+19,0.0
942,6.017349614994914e+30,6068695.268849202,8.744552381821258e+18,0.0
943,6.015762715302085e+30,6003395.460827081,4.707944805209413e+19,0.0
944,6.016551643007917e+30,6028510.722673947,2.7825252285338345e+19,0.0
945,6.017094024852355e+30,6052643.717549747,1.4800393828153938e+19,0.0
946,6.001377639491502e+30,5822074.919663735,4.274365530166321e+20,0.0
947,6.016666653047539e+30,6032952.661967221,2.5046753860937822e+19,0.0
948,6.015954111195525e+30,6008831.517258787,4.237985480374223e+19,0.0
949,6.017094024852355e+30,6052643.717549747,1.4800393828153938e+19,0.0
950,6.009588824399657e+30,5899526.814887167,2.0501999153766957e+20,0.0
951,6.015316492563164e+30,5991846.225511645,5.8098431201069466e+19,0.0
952,6.01228848281974e+30,5935249.302901699,1.3468869498956074e+20,0.0
953,6.017349614994914e+30,6068695.268849202,8.744552381821258e+18,0.0
954,6.012811904054108e+30,5943340.480373938,1.2125551260271749e+20,0.0
955,6.01107183011477e+30,5918084.044884487,1.661784791768475e+20,0.0
956,6.01228848281974e+30,5935249.302901699,1.3468869498956074e+20,0.0
957,6.008730225088642e+30,5889694.296052041,2.2771838111614874e+20,0.0
958,6.007783033567314e+30,5879474.739968258,2.5292618079489285e+20,0.0
959,6.015057161875266e+30,5985715.428251033,6.453945105232895e+19,0.0
960,6.014102206956836e+30,5965786.205869841,8.846742977958134e+19,0.0
961,6.014453029496688e+30,5972695.152718601,7.964067383894334e+19,0.0
962,6.014770296074528e+30,5979334.928942936,7.169389221579923e+19,0.0
963,6.008730225088642e+30,5889694.296052041,2.2771838111614874e+20,0.0
964,6.013285655400123e+30,5951119.590665737,1.0916083913275595e+20,0.0
965,6.015762715302085e+30,6003395.460827081,4.707944805209413e+19,0.0
966,6.013285655400123e+30,5951119.590665737,1.0916083913275595e+20,0.0
967,6.011710316317055e+30,5926834.472029937,1.496082828965845e+20,0.0
968,6.016424264472145e+30,6023885.049677355,3.0911769230487618e+19,0.0
969,6.017477579083236e+30,6079361.716654416,5.739508903656227e+18,0.0
970,6.014453029496688e+30,5972695.152718601,7.964067383894334e+19,0.0
971,6.016666653047539e+30,6032952.661967221,2.5046753860937822e+19,0.0
972,6.012811904054108e+30,5943340.480373938,1.2125551260271749e+20,0.0
973,6.016770482199806e+30,6037217.8925734265,2.2545557910666375e+19,0.0
974,6.008730225088642e+30,5889694.296052041,2.2771838111614874e+20,0.0
975,6.016666653047539e+30,6032952.661967221,2.5046753860937822e+19,0.0
976,6.007783033567314e+30,5879474.739968258,2.5292618079489285e+20,0.0
977,6.016770482199806e+30,6037217.8925734265,2.2545557910666375e+19,0.0
978,6.016666653047539e+30,6032952.661967221,2.5046753860937822e+19,0.0
979,6.016127020831962e+30,6014053.12268462,3.81490882198401e+19,0.0
980,6.016551643007917e+30,6028510.722673947,2.7825252285338345e+19,0.0
981,6.010366904504607e+30,5908985.716527723,1.8458158554985408e+20,0.0
982,6.010366904504607e+30,5908985.716527723,1.8458158554985408e+20,0.0
983,6.014453029496688e+30,5972695.152718601,7.964067383894334e+19,0.0
984,6.015550889914525e+30,5997736.583679496,5.2299763226291634e+19,0.0
985,6.014102206956836e+30,5965786.205869841,8.846742977958134e+19,0.0
986,6.008730225088642e+30,5889694.296052041,2.2771838111614874e+20,0.0
987,6.017638232125572e+30,6099448.462253305,2.0026916385913362e+18,0.0
988,6.010366904504607e+30,5908985.716527723,1.8458158554985408e+20,0.0
989,6.01107183011477e+30,5918084.044884487,1.661784791768475e+20,0.0
990,6.015057161875266e+30,5985715.428251033,6.453945105232895e+19,0.0
991,6.010366904504607e+30,5908985.716527723,1.8458158554985408e+20,0.0
992,6.013714355793105e+30,5958597.869055404,9.827146862582135e+19,0.0
993,6.01107183011477e+30,5918084.044884487,1.661784791768475e+20,0.0
994,6.015316492563164e+30,5991846.225511645,5.8098431201069466e+19,0.0
995,6.01228848281974e+30,5935249.302901699,1.3468869498956074e+20,0.0
996,6.01107183011477e+30,5918084.044884487,1.661784791768475e+20,0.0
997,6.008730225088642e+30,5889694.296052041,2.2771838111614874e+20,0.0
998,6.017720954493104e+30,6126217.341363943,1.0491126553013054e+17,0.0
999,6.014453029496688e+30,5972695.152718601,7.964067383894334e+19,0.0
