,0
0,4.1190437367520925e-06
1,3.0141662750221317e-06
2,1.3077505055355741e-05
3,1.0909464078200747e-05
4,2.76604310894707e-06
5,3.8830465001896655e-06
6,6.785029177030749e-07
7,1.863633634412839e-05
8,4.329833519315389e-06
9,2.6811410609126284e-06
10,7.034964785853032e-06
11,1.514181457590513e-05
12,2.7667929589720296e-06
13,1.3409543259713976e-05
14,4.825758691797816e-06
15,7.6040800199082e-06
16,6.46786407320804e-06
17,2.5488174258644353e-06
18,1.0243323122585187e-05
19,5.280174669496846e-06
20,1.9286406567530362e-05
21,3.0437242743662878e-05
22,8.187114507316702e-06
23,9.88208103854721e-06
24,9.571718908153072e-06
25,1.280490603518902e-05
26,4.052686854443365e-06
27,7.2334911411855555e-06
28,9.98379065557742e-06
29,1.290098472612208e-05
30,6.745584291092497e-07
31,2.224963917056704e-05
32,8.44501712835731e-06
33,1.0535475701160407e-05
34,3.0158602722356315e-06
35,6.803170375259674e-06
36,1.3243466372192579e-07
37,2.1980323086115776e-05
38,1.0965879112859282e-05
39,1.9713294913653e-07
40,1.0106595063370526e-05
41,1.1629946494621421e-05
42,5.314929762483702e-06
43,1.5268144218285209e-06
44,1.2262234381713577e-05
45,2.437236801465982e-06
46,2.5437579070435026e-05
47,1.6880197339495657e-05
48,9.146488072428635e-06
49,1.462300785367958e-06
50,1.9944896467720482e-05
51,1.3339299746070679e-05
52,1.283631141361493e-05
53,1.57163489333223e-05
54,4.657083644714686e-06
55,3.7652316852425284e-06
56,3.5227742128650515e-06
57,3.5976157372942227e-06
58,3.506215887742213e-07
59,1.55572700002548e-05
60,6.61250737136281e-06
61,4.036687468307712e-06
62,2.48549092358852e-06
63,1.1334074226984392e-05
64,3.2089855743323906e-06
65,1.2721039284751364e-05
66,6.4160412805798405e-06
67,1.7799431122669657e-06
68,1.1291363206649263e-06
69,3.006358925959689e-06
70,1.0277166402293739e-05
71,1.580301597427284e-05
72,2.9469553382819136e-06
73,1.2184631406248765e-05
74,1.7657544480210573e-05
75,3.0746595835382513e-06
76,2.0207131816013215e-05
77,2.556899127180545e-06
78,3.877892918460156e-06
79,1.2607669959546065e-05
80,8.245513709226044e-07
81,7.249635832382167e-06
82,2.7308738307300366e-06
83,8.480835554172447e-06
84,9.73762613886871e-06
85,2.6859708199040933e-05
86,1.2634023082645997e-05
87,5.722906531810049e-06
88,2.2018712599379998e-05
89,1.505151418439631e-05
90,7.411606925945689e-07
91,1.464567292550157e-06
92,8.497504468479009e-06
93,1.2116728836056076e-06
94,4.817577409309865e-07
95,8.618619688474808e-06
96,5.630447130112768e-06
97,1.5122043062245449e-05
98,7.587702484112393e-07
99,6.91721800972469e-06
100,5.946943273558975e-06
101,8.261639592316385e-06
102,2.718636908404758e-06
103,9.121746464399515e-06
104,9.763917283897916e-07
105,8.454911806033018e-06
106,5.201347959138258e-06
107,1.1582159520127603e-05
108,1.895634159236197e-06
109,6.081679968150968e-06
110,8.663663474011191e-06
111,3.204800971147317e-06
112,7.247064088869834e-06
113,2.745835096693857e-05
114,4.699967151298259e-06
115,2.24665104550537e-05
116,1.8238883878033638e-05
117,8.88508721230994e-06
118,1.3373278967342903e-05
119,1.2892805265544553e-05
120,9.040600177717251e-06
121,1.3558392996356391e-07
122,1.0559335752779405e-05
123,3.039902788492562e-06
124,9.186840026509986e-06
125,9.015672736269886e-07
126,1.0545287869924753e-05
127,4.446052612122918e-06
128,2.0845740702721632e-05
129,1.5975883337944822e-05
130,1.0866155855563687e-05
131,2.6974486119228285e-06
132,6.721382113774944e-06
133,1.1801427829760542e-05
134,1.304393933521611e-05
135,4.3574078775253015e-06
136,5.063187004068414e-06
137,9.510795552346585e-06
138,3.3606436417234706e-06
139,9.326806849555494e-06
140,1.6249867418517378e-05
141,1.0506663373144057e-05
142,3.949624255522503e-06
143,4.174869581222402e-07
144,3.409551871177929e-06
145,8.940020585281078e-06
146,1.4602723728926488e-05
147,2.4379258427817e-06
148,1.8051036788145827e-05
149,1.5192371579991658e-05
150,9.678297802732786e-06
151,1.1549089644872672e-05
152,1.2787661200271313e-05
153,6.436483626615956e-06
154,2.149428916212095e-05
155,1.1033743585170276e-05
156,1.1923489317175033e-05
157,2.9244327319707385e-06
158,1.2646842237911933e-05
159,7.0029016675356295e-06
160,1.7015807803118947e-05
161,2.596735978541379e-06
162,1.3478982782694648e-06
163,3.4146988196506773e-06
164,1.7564853456472442e-05
165,4.567909946919975e-06
166,4.629025918229436e-06
167,5.495300134630597e-07
168,7.618973334225869e-06
169,1.2488833375503863e-05
170,3.0938869532925677e-07
171,3.123386393611299e-06
172,6.732226205347696e-06
173,1.0151648864413217e-05
174,7.237850585609586e-06
175,6.191804005768596e-06
176,2.1412155874794806e-06
177,2.4170768156932184e-05
178,7.427412389948205e-07
179,5.899971759195775e-06
180,2.0414996641343315e-05
181,8.242427569306985e-06
182,5.191807013254693e-06
183,6.76370958088965e-06
184,1.3639508125343303e-06
185,1.1874629364361268e-07
186,1.2684269800340156e-07
187,1.0527617881759837e-05
188,1.240053291971101e-05
189,8.593207747720127e-06
190,9.171086735991577e-06
191,3.2231883516998755e-06
192,2.3347620999178135e-06
193,1.1859404378613052e-06
194,3.139469989453408e-06
195,1.2936895898872418e-05
196,2.400046444467605e-06
197,2.2319043279692202e-05
198,4.8193863954820785e-06
199,9.413006892707772e-06
200,9.331417352377971e-06
201,2.9698817476604245e-06
202,7.184248369969825e-07
203,1.1212084394619708e-05
204,1.5029036248821928e-05
205,1.0788092134742551e-05
206,1.3678983896513579e-05
207,4.874558571778054e-06
208,9.741954652901585e-06
209,2.6687022831346307e-06
210,1.399548049964635e-05
211,7.32337577169014e-07
212,8.30034233045207e-06
213,1.2598500770988196e-05
214,3.4937394592386712e-06
215,5.233223734375844e-06
216,2.6973949450253624e-05
217,1.420544409249288e-08
218,9.830161631714546e-06
219,1.0757989066833257e-05
220,2.327684092560796e-06
221,1.2867988625551147e-05
222,9.076240755692242e-06
223,4.202425858006197e-06
224,9.08274437961953e-06
225,3.072496030308534e-05
226,1.8417959119924926e-06
227,6.236071866198146e-06
228,2.38381624912872e-05
229,1.056681880900689e-05
230,4.78988273196428e-06
231,6.085169325106818e-06
232,2.534558512137766e-06
233,5.240191293713975e-06
234,4.797859991376482e-06
235,1.7411538723362872e-06
236,1.0940197701351762e-05
237,3.4380994447778243e-06
238,6.4768598772125915e-06
239,1.771589999685433e-06
240,7.602260643772454e-06
241,2.516529362397977e-06
242,9.569079132348651e-06
243,1.2407823079325174e-05
244,7.292236482874245e-07
245,4.801898915793776e-06
246,6.7751295448951634e-09
247,7.37385229350779e-06
248,7.620748299019848e-06
249,2.0248410554817606e-06
250,1.3738515064893552e-05
251,8.087517801271291e-07
252,7.3151618669231e-06
253,1.3486269851681657e-05
254,5.028926268684163e-06
255,4.965434925691834e-06
256,1.1633124726801033e-05
257,1.1402298742299872e-05
258,1.0289289299143576e-05
259,4.645659808728827e-06
260,2.2830530357735634e-05
261,7.133722043710551e-06
262,1.7277073035772963e-05
263,6.464568821852418e-06
264,1.499789569960853e-05
265,9.309491796441772e-06
266,9.589456488361853e-06
267,2.612674438424714e-06
268,1.8140119127933964e-06
269,4.634300432761878e-06
270,1.7264078208060795e-05
271,3.532510670049526e-06
272,1.0296480138612689e-05
273,4.526028402374347e-06
274,8.457085122188446e-06
275,1.0956536150731335e-05
276,8.838515544489668e-06
277,7.686655733329793e-06
278,2.2187874570073445e-05
279,7.3472424633606515e-06
280,6.8240700492294524e-06
281,1.0449248292438482e-05
282,6.277672610544011e-07
283,3.2569600822224996e-06
284,7.587796400291316e-06
285,8.971497809866678e-08
286,9.141073932905328e-06
287,2.4164735139263203e-05
288,2.6280243456251673e-06
289,2.3273161746514214e-06
290,2.5712892897451422e-05
291,2.780790235093211e-06
292,5.783700032837643e-06
293,3.612894469148549e-06
294,1.1739135830248725e-05
295,1.657308054600122e-05
296,4.998745669720802e-06
297,4.49960273590706e-06
298,5.34536835552966e-06
299,7.236264748561336e-06
300,1.6926281165554455e-05
301,2.370353525327591e-05
302,9.431560944507976e-06
303,1.1024572749438856e-05
304,3.2047443656510747e-06
305,7.035466718881126e-06
306,4.331427703013488e-06
307,1.361326238979364e-05
308,1.374076709448563e-06
309,1.378078320285667e-05
310,2.7579716727705453e-06
311,8.837645028461963e-06
312,2.0154901547913974e-06
313,8.346049153300062e-07
314,8.498184911795383e-06
315,8.580251301974112e-07
316,2.5299826622045444e-06
317,4.830245836582836e-06
318,1.6246794154543047e-05
319,1.7576570896415832e-06
320,2.2516933867483712e-05
321,3.1781534834404985e-06
322,1.1769607275234063e-05
323,9.399036563610487e-07
324,1.8812699188257377e-06
325,4.002958959298621e-06
326,6.957252933692708e-08
327,1.2984487009116155e-05
328,8.538846391799351e-07
329,1.4674134379230076e-05
330,2.846584903538666e-06
331,3.741978818630054e-06
332,5.2834467339926075e-06
333,4.630692769420211e-06
334,1.1653899583999413e-05
335,2.16907112194365e-05
336,8.03268267211995e-07
337,1.7687286914939234e-05
338,1.6013836013213163e-05
339,9.308667001955627e-06
340,2.1935653467312507e-06
341,4.749371969333998e-06
342,1.7699488639957102e-06
343,8.62767003066053e-06
344,2.209993763291696e-06
345,8.037842425998644e-06
346,7.101801142049401e-06
347,1.5633042681876118e-05
348,3.2470817297807775e-06
349,9.08999286042322e-06
350,2.8591045487769764e-06
351,3.781640652029258e-07
352,4.064883781633982e-06
353,1.696015247918139e-05
354,4.658228314427865e-06
355,5.410246817025553e-06
356,9.282533363550329e-06
357,9.902222222686435e-07
358,9.847060347851302e-07
359,9.639048352254558e-06
360,1.0728027290047722e-05
361,3.1714270130688183e-06
362,9.283248977495993e-06
363,1.055735685032178e-05
364,6.794218497743502e-06
365,9.187282884763151e-07
366,3.1231612848894983e-06
367,1.0056381639983508e-05
368,1.9231171744050157e-06
369,1.2502420168506412e-05
370,4.82436959220968e-06
371,1.3197058293782081e-05
372,1.4726563646737859e-05
373,1.7455804990210898e-05
374,9.294673606476521e-08
375,1.2679469103993196e-05
376,3.4518785162420133e-06
377,2.8892344000596384e-06
378,6.918146531973406e-06
379,3.6161493560140454e-06
380,1.4108122305850587e-05
381,1.7699012996118383e-05
382,1.0746010523225935e-05
383,1.2471289049675728e-05
384,7.502657060027848e-06
385,2.508666211398542e-06
386,1.0150256776946009e-08
387,1.484901951575083e-06
388,8.661662216590148e-06
389,4.905678980980682e-06
390,3.252644134424379e-06
391,1.420293419687961e-05
392,1.167366701962529e-06
393,1.92116911967189e-05
394,6.210031047926908e-06
395,5.935460332999934e-06
396,1.6063175202164946e-05
397,1.919274644232135e-05
398,2.1585831241855917e-05
399,2.5147491705457337e-06
400,4.193194570479066e-06
401,3.0825433534558805e-06
402,9.317082647407402e-06
403,4.540433517938668e-06
404,2.1088821272908532e-06
405,1.9127635066196022e-07
406,1.2571027410571262e-05
407,3.021381545546477e-06
408,8.68733531761383e-06
409,5.1787009067151395e-06
410,1.4075087994678548e-05
411,1.109784009649754e-05
412,8.75307133366492e-06
413,1.2544829271708691e-05
414,1.60730000169376e-05
415,1.4831523272384353e-06
416,1.2407047211498056e-05
417,8.800919373130096e-06
418,1.2015675713236764e-05
419,4.859098162802185e-06
420,2.0211304848254455e-07
421,1.2303936787772072e-05
422,4.195524053283282e-06
423,7.586169728626877e-06
424,1.4041525490429035e-05
425,3.197510983918681e-06
426,2.758386821576288e-07
427,2.551795405597579e-06
428,2.231830104945721e-05
429,1.0079704848081314e-05
430,1.6362931357103622e-05
431,1.0042849429882618e-05
432,3.240672699106148e-06
433,1.1043785071689174e-05
434,6.724536895653374e-06
435,1.0113282176364189e-05
436,5.086029815760584e-06
437,1.0865973427778933e-05
438,8.816529777898913e-06
439,1.2451719122692924e-06
440,3.087053563863742e-06
441,6.235017917893067e-06
442,1.213590801946934e-05
443,7.631108778212964e-06
444,5.047390514365274e-06
445,2.468682540526499e-06
446,7.759957589240391e-07
447,3.7891042234469124e-06
448,7.184346423137633e-07
449,8.954287960743657e-06
450,9.81201014781951e-06
451,3.0029468851189258e-06
452,3.13009256045111e-06
453,2.2598829690523328e-06
454,2.020901895929093e-05
455,2.9729321836304897e-06
456,1.3008687948640701e-05
457,5.940607617843367e-06
458,4.864588046458471e-06
459,1.139826150608944e-05
460,9.629359473462143e-06
461,1.222273959272523e-05
462,3.6885623540515425e-06
463,1.053259432222304e-05
464,9.602957296337355e-06
465,8.137129045147284e-06
466,5.189885492091882e-07
467,1.110267694989393e-05
468,1.6646877182931736e-05
469,1.0272507518070058e-05
470,2.49897856204474e-06
471,1.3123561861853885e-05
472,4.2306334882381265e-06
473,1.2226104115878013e-05
474,6.4856486901005475e-06
475,4.41570227301834e-06
476,1.9508228924442198e-05
477,3.652468133468247e-06
478,4.893346977873862e-06
479,8.145168315162722e-06
480,4.982622838341893e-06
481,2.1614824032255354e-05
482,8.52158727894635e-06
483,9.020959396809957e-06
484,1.2692450980912432e-06
485,1.3429235832335868e-05
486,1.2064084094354434e-05
487,2.111117627535259e-06
488,1.1732761496516225e-06
489,1.1001092116575784e-05
490,8.187458277816877e-06
491,3.271534805631135e-06
492,1.5707848133027829e-06
493,7.5602334379031295e-06
494,2.55090740009788e-06
495,2.1010688904636397e-06
496,5.548654002382807e-06
497,9.507727772465131e-06
498,2.614113622607557e-05
499,9.27635516057954e-06
500,2.4105122015412744e-05
501,6.392846652862563e-06
502,7.0685185999082366e-06
503,5.408186456669688e-06
504,1.4136571989608942e-06
505,6.494350593470179e-06
506,9.847215147802135e-06
507,1.7940880509884078e-06
508,4.333429847791256e-08
509,8.840310675028235e-06
510,1.2776975709124814e-05
511,4.573414019849543e-06
512,3.2361951310603272e-06
513,9.756959098013641e-06
514,9.70014850339083e-06
515,9.911195864518417e-09
516,7.431210659532369e-06
517,8.350946806502344e-06
518,5.8857325808306e-06
519,1.3891190134528226e-06
520,4.268901040425475e-06
521,3.7394885886789783e-06
522,9.427981490009071e-06
523,8.943475684240177e-06
524,1.1297656255931525e-05
525,7.513397595913373e-06
526,7.109003693725827e-06
527,8.832331873701232e-06
528,1.2232447685230945e-05
529,7.525959266549299e-06
530,2.2923535867433398e-05
531,1.0118661032792532e-05
532,2.165225095157884e-06
533,7.63167475494916e-06
534,3.5442597151234823e-06
535,1.430573380781639e-05
536,6.567856293041084e-06
537,4.434567424381705e-06
538,6.808225926649216e-06
539,1.795405906464834e-06
540,4.1771903585652057e-07
541,6.188781810200144e-06
542,2.934586338859666e-06
543,1.65639125118734e-06
544,5.836107382340804e-06
545,8.016394396583657e-06
546,5.644649271903123e-06
547,9.197163340951832e-07
548,9.025111011900158e-06
549,7.761142683972274e-06
550,2.1659028797130826e-06
551,5.197230258338484e-06
552,3.473513470809288e-06
553,1.536446880752399e-05
554,3.119818535916152e-06
555,8.646030324748873e-06
556,7.05050072316556e-06
557,1.5235468677865583e-05
558,1.742056868454608e-05
559,8.206896931496342e-06
560,1.2961687139881e-06
561,1.0440798583415455e-05
562,1.4840677115757781e-05
563,1.6165372565119047e-06
564,7.290093304705725e-06
565,1.7922459706542166e-05
566,4.05462814602391e-06
567,6.577020701172552e-06
568,5.230206591296463e-06
569,9.0410600162561e-08
570,1.949331479194263e-05
571,2.453682220730105e-06
572,1.2204987718873503e-05
573,6.407824446723525e-06
574,2.5342288364383454e-05
575,4.685051319236936e-07
576,1.3490953444942192e-05
577,1.520812778770153e-06
578,1.886203364436717e-05
579,8.98477367135964e-07
580,5.9664042676605354e-06
581,2.6002302687480332e-06
582,2.1577965302705492e-07
583,8.935528148540034e-06
584,1.4046453539371058e-05
585,8.439997161686557e-06
586,3.1091196411081487e-06
587,4.831265236259277e-06
588,7.075542326047712e-06
589,5.065344076492185e-06
590,9.464522987207541e-06
591,1.4714218191877218e-05
592,2.183604214758445e-06
593,1.584331573252475e-06
594,3.305790403449818e-07
595,7.209078409923284e-06
596,3.6362556231377355e-06
597,3.421005371165368e-06
598,2.2779211291353347e-05
599,8.13516878695615e-06
600,2.4706587157954717e-06
601,5.361154986037014e-06
602,7.4057810197688986e-06
603,2.6032611118459066e-06
604,1.5115009489205549e-05
605,6.226237104282354e-08
606,7.089579911660196e-07
607,4.117162707322059e-06
608,2.6278893173639014e-05
609,3.512624863165834e-08
610,9.84819023083587e-06
611,1.2770941358506189e-05
612,7.884880926892631e-07
613,2.8574943780076617e-06
614,7.041529250188158e-06
615,2.0212930026689804e-05
616,1.9268667866706457e-05
617,2.694047870835533e-05
618,1.3386933272597626e-05
619,5.839702809360191e-06
620,6.277769266209986e-06
621,5.4284573950729045e-06
622,2.592372460636304e-05
623,5.832246026375094e-06
624,1.2256794137243217e-05
625,2.9186231750478707e-06
626,1.2132866514982114e-05
627,1.1472916376290033e-06
628,2.112769644853106e-06
629,1.9291443302166397e-05
630,1.1963258562730187e-05
631,4.6392845789010046e-06
632,6.741425054382114e-06
633,2.1043452297349783e-05
634,1.6909957190403478e-06
635,2.810935516062226e-06
636,2.88963486767612e-06
637,7.994418401310277e-06
638,1.6694758146090303e-05
639,9.802136427868543e-06
640,5.476598455844971e-06
641,3.666103181820725e-06
642,1.1293710613466388e-05
643,1.1386511554155431e-07
644,2.190121443613426e-06
645,7.409791709372314e-06
646,2.615920543467073e-06
647,2.317205486882969e-06
648,1.3755553180770367e-05
649,6.820394060918071e-06
650,1.2694568259112201e-05
651,4.80078733110282e-06
652,7.984745412381094e-06
653,1.4799200751020288e-06
654,1.246931497783517e-05
655,5.8375126414035545e-06
656,2.517056670350182e-06
657,5.245472520945027e-06
658,7.892883351926095e-07
659,9.50866832708383e-07
660,5.731866341194006e-07
661,1.7752975614571102e-07
662,1.7695599776570978e-05
663,4.664992944575336e-06
664,1.4280816687756482e-05
665,2.1663357050392144e-05
666,2.5639688000912494e-06
667,1.4061063188137876e-05
668,7.485322663154856e-06
669,3.350866672046407e-06
670,8.962770435701157e-06
671,4.9669604961450424e-06
672,1.0668325247449265e-05
673,7.049956955920911e-06
674,5.443548343088418e-06
675,2.3216292340885754e-06
676,2.7124095317628366e-06
677,6.042922703449743e-06
678,4.560102197672321e-06
679,6.970654264802574e-06
680,3.734092200775554e-06
681,9.496306177407101e-06
682,7.757695323651506e-06
683,1.8930697495361358e-06
684,3.0169133594769292e-06
685,1.5006443773026106e-06
686,1.7304304857543322e-05
687,2.9347285587608665e-06
688,2.5962431621094387e-06
689,9.203906231589104e-06
690,1.4067053212616674e-05
691,7.941019553272995e-07
692,5.876321425390083e-06
693,1.0762909048481346e-05
694,3.6980941235325594e-06
695,1.4074119432462072e-05
696,2.760870385884638e-06
697,1.0355568665171596e-05
698,4.407546941096648e-06
699,3.714621656676017e-06
700,2.5749685992629973e-07
701,1.1895806806605925e-05
702,3.380755277723786e-06
703,1.1010423725854691e-05
704,1.9683526943309788e-06
705,1.2807280711961554e-06
706,1.5697179799008334e-06
707,1.1360951781896335e-05
708,7.99422439410413e-06
709,5.689414786796896e-06
710,5.294381403944341e-06
711,3.086429145406706e-06
712,1.6085952826398178e-05
713,4.749377418092268e-06
714,1.6697240949101765e-05
715,1.3500136734822152e-05
716,2.944357156313801e-06
717,6.464582781739705e-06
718,1.8039809006625722e-06
719,3.305864681737326e-06
720,7.200708775582602e-06
721,1.8917455374997936e-06
722,1.484533743700575e-05
723,1.1516425382682639e-05
724,8.976788760287564e-06
725,1.4107458376384611e-05
726,1.0544279917729964e-05
727,2.4608046088287618e-05
728,1.0040369771728382e-05
729,5.033292613335543e-06
730,1.1862922192029055e-05
731,5.360801709199255e-07
732,1.7999684872495781e-06
733,8.676297933574473e-06
734,8.341719822875204e-06
735,6.231444478345348e-06
736,1.2881666624911645e-05
737,3.492919662472046e-06
738,1.4528689958575106e-05
739,2.4080260957524287e-06
740,1.685930675992673e-05
741,9.997865450099282e-06
742,6.433480238679056e-06
743,5.855005168469701e-06
744,8.973447732192727e-06
745,7.940499477330839e-06
746,3.350749917596467e-06
747,8.286636608925045e-06
748,3.845876759704691e-06
749,3.719497129039302e-06
750,9.45142489040712e-06
751,5.767976394609001e-06
752,1.656039990071677e-05
753,2.410089312045221e-06
754,2.2286564391521936e-06
755,3.973131437851197e-06
756,9.87177051214307e-06
757,4.043253380194265e-06
758,8.977612961301954e-06
759,1.3799289037818803e-05
760,2.376690289759211e-05
761,8.978575724867709e-06
762,5.1615773522188415e-08
763,1.2406419899970835e-07
764,9.083737517124204e-06
765,5.630487398229209e-06
766,1.2462770270841905e-07
767,1.9881910704585727e-05
768,5.465604857352531e-07
769,1.5901748885116503e-05
770,1.1785005016432812e-05
771,3.939687498271033e-07
772,1.4611568578636706e-05
773,1.2128642772970583e-05
774,1.1552993113262803e-05
775,3.136381683950494e-06
776,2.5958193175897245e-06
777,4.707531400546821e-07
778,2.8318683231280556e-06
779,1.793575383437453e-05
780,1.4048526420241049e-05
781,1.3139461864798908e-05
782,1.1664973733529948e-05
783,5.021903552477113e-06
784,8.864668149194722e-06
785,5.134830301900393e-06
786,3.8976914705386195e-06
787,1.2155487384919401e-07
788,8.29210715531406e-06
789,2.1275616304751915e-06
790,2.881277803528025e-06
791,6.708441001543306e-06
792,8.184028418934708e-06
793,1.9268584899628665e-05
794,4.6115193393874e-06
795,1.468814366501773e-05
796,2.8931851313656155e-06
797,1.0433042530925896e-05
798,1.8930257522856396e-06
799,1.0963047535374987e-06
800,3.985319092051238e-06
801,3.911481905202797e-06
802,5.5817992853384484e-06
803,2.769233488991445e-06
804,7.676451039339696e-06
805,1.6605216858495206e-05
806,8.105228221591622e-06
807,1.136020705339355e-06
808,2.196608500698566e-05
809,9.009235030785678e-06
810,4.133668660238555e-06
811,2.432932529032976e-06
812,1.5203051358244436e-05
813,9.149158672696737e-06
814,7.423442242711791e-06
815,4.444877840348326e-06
816,6.725429559178793e-06
817,7.5568305086355995e-06
818,7.024871419076053e-07
819,1.504294251208686e-05
820,1.2039799725280553e-05
821,3.2607448169546717e-06
822,1.7388482241474404e-05
823,3.01289102843888e-06
824,2.099258772114718e-06
825,2.438535751978554e-05
826,1.4241689211535858e-05
827,1.0112686078033295e-06
828,2.0376895452741516e-06
829,1.4888737707471579e-05
830,3.7752229023738013e-06
831,5.538444742226912e-06
832,1.2669940281243936e-05
833,2.38024783222983e-05
834,3.639584887995953e-06
835,5.334328916044368e-06
836,7.368314371606429e-06
837,1.810713543872203e-05
838,1.3865893287292005e-05
839,2.279749070538887e-05
840,1.0137258437129098e-05
841,8.522005950879459e-06
842,6.988745984318877e-06
843,5.349689696778773e-06
844,1.0169146628724814e-05
845,5.948177783489606e-07
846,5.018906133121504e-06
847,2.6904273980390857e-06
848,2.6791071436191418e-06
849,3.34782029475089e-06
850,4.419951210791436e-06
851,3.6040350444894933e-06
852,1.7812888571491525e-06
853,7.436492306888069e-06
854,1.4459195024376656e-05
855,6.35042204737936e-07
856,4.42546646741011e-07
857,6.428334718855903e-06
858,1.688380070973311e-05
859,9.305798909492623e-06
860,9.716103879129089e-06
861,1.0737328567628936e-05
862,2.3991297288681117e-05
863,7.661176531448175e-06
864,4.720469741011515e-06
865,8.973279984442178e-07
866,1.4685474430133849e-06
867,1.688726290077871e-05
868,7.373289201969289e-06
869,3.7693933679381246e-06
870,6.866955719044323e-07
871,1.1358699250460012e-06
872,6.6852603285980945e-06
873,3.579149812693949e-06
874,2.1815160238536326e-06
875,1.0451377990580275e-05
876,3.15579756780224e-06
877,3.0385374403834375e-06
878,1.4597414179471518e-05
879,5.405815706378812e-06
880,6.158286283814705e-07
881,1.1549579611959113e-05
882,1.4796890575555767e-06
883,6.748640347515671e-06
884,1.723302185162694e-05
885,1.7060409015425057e-07
886,1.0768884923629368e-05
887,1.0139660155429978e-05
888,7.499774757433801e-07
889,1.647724145042634e-05
890,1.052172604410994e-05
891,8.271240032251236e-06
892,1.5302788134100693e-05
893,6.8797258188606615e-06
894,4.471575821639961e-06
895,3.3897604919262526e-06
896,6.841724010111841e-06
897,1.5340962410449432e-05
898,4.866840490501066e-06
899,1.3947892705279873e-05
900,4.5453498831895034e-06
901,2.2927478129260545e-05
902,7.79612033857923e-06
903,2.2822213928011383e-05
904,1.759655521932237e-06
905,1.75382929984365e-05
906,9.066971515356731e-06
907,7.2174968724656975e-06
908,8.643794035213835e-06
909,6.635315216303741e-07
910,9.550778124896162e-06
911,1.2824886604452134e-06
912,6.99600163887922e-06
913,4.1971122695698486e-06
914,5.435547908381947e-06
915,2.2048303088271928e-05
916,7.541825503649239e-06
917,7.84237655811225e-06
918,1.4901918116806185e-05
919,6.402984405413683e-06
920,2.039303321686484e-05
921,9.463579587503283e-06
922,6.036431833203021e-06
923,1.4341374735371547e-05
924,4.122817286060218e-06
925,6.612446734389908e-06
926,1.001880541156919e-05
927,4.729774084352555e-06
928,7.144881699239203e-06
929,2.0667654887159662e-05
930,1.580862425501066e-05
931,1.4315527803574483e-05
932,4.696699779419732e-06
933,1.6797966117389237e-06
934,1.9729544098713992e-06
935,6.462256305974011e-06
936,3.725204314088913e-06
937,6.903647721051645e-06
938,3.619799025691205e-07
939,6.908907984515562e-06
940,1.2197246201950817e-05
941,1.6947718409703155e-05
942,1.0247791318556033e-05
943,1.4331324279840577e-05
944,9.32405943488858e-06
945,1.2742711221739032e-05
946,6.337626456414753e-06
947,1.898314729217117e-05
948,4.8538211613598925e-06
949,3.259168926359608e-06
950,1.3761734361905015e-05
951,3.7647477793863516e-06
952,2.9762576929100548e-06
953,3.420843606822626e-06
954,5.096031897689399e-06
955,9.42809338765395e-06
956,9.32651369358236e-06
957,5.382915516958926e-06
958,1.941938172492471e-06
959,1.181082788841707e-05
960,4.269612943537255e-06
961,1.2955404592068861e-05
962,7.708311488899834e-07
963,3.939317609509446e-06
964,3.8543097587897385e-06
965,4.595268238446752e-06
966,7.23306929376e-07
967,1.0792636674918765e-05
968,5.820071620532851e-06
969,5.441257169436415e-06
970,1.3120192227833076e-05
971,1.4571376494579448e-06
972,1.9214548039974e-06
973,1.1824248079602294e-06
974,1.1716931543932068e-05
975,8.913743596986036e-06
976,1.0688693264248499e-06
977,1.8031011114494278e-05
978,2.648431590537116e-05
979,5.075609260028383e-06
980,3.7993516988745407e-06
981,2.161999579209365e-06
982,2.463814036294939e-06
983,4.594090081040772e-06
984,4.654407799576152e-06
985,1.0609319786253353e-05
986,5.203566844358803e-06
987,3.370601869791383e-06
988,2.9197506013441057e-06
989,9.090472768413804e-06
990,1.0889807171686481e-05
991,1.5230676030889078e-05
992,7.221932318751865e-06
993,2.0710976478847803e-05
994,5.570218589089115e-06
995,1.4404124276037125e-05
996,1.4399477065224461e-05
997,1.906337725041984e-05
998,1.812173204142829e-05
999,1.1156059953917281e-05
