,0,1,2,3
0,1.988428582504528e+30,116783.3859778064,9.997654695632339e+18,0.0
1,1.9884285825522515e+30,116793.03220435049,7.288422634730975e+18,0.0
2,1.9884285823125832e+30,116755.52592228637,2.0901515852504044e+19,0.0
3,1.9884285822717262e+30,116750.83322418875,2.3223701265505427e+19,0.0
4,1.9884285823493607e+30,116760.02534520596,1.881152365788231e+19,0.0
5,1.9884285824390884e+30,116772.44179996004,1.3713921379266945e+19,0.0
6,1.9884285825650924e+30,116795.98629692858,6.559616851174271e+18,0.0
7,1.9884285826048457e+30,116806.63418818182,4.3038508830405745e+18,0.0
8,1.9884285825766503e+30,116798.81863123877,5.903686644176067e+18,0.0
9,1.9884285825379855e+30,116789.95112642221,8.09820039812057e+18,0.0
10,1.9884285826254054e+30,116813.52246227518,3.137547975032636e+18,0.0
11,1.9884285826614435e+30,116831.10326542977,1.0940315341615656e+18,0.0
12,1.988428582635916e+30,116817.65432205178,2.5414336249102387e+18,0.0
13,1.9884285826254054e+30,116813.52246227518,3.137547975032636e+18,0.0
14,1.9884285825221362e+30,116786.73761229044,8.997946004699514e+18,0.0
15,1.9884285824390884e+30,116772.44179996004,1.3713921379266945e+19,0.0
16,1.9884285826480614e+30,116823.23490150733,1.8527245727738004e+18,0.0
17,1.988428582669348e+30,116837.47748555496,6.460224302607286e+17,0.0
18,1.9884285825650924e+30,116795.98629692858,6.559616851174271e+18,0.0
19,1.9884285825650924e+30,116795.98629692858,6.559616851174271e+18,0.0
20,1.9884285825221362e+30,116786.73761229044,8.997946004699514e+18,0.0
21,1.9884285824849658e+30,116779.89029560085,1.1108432106048289e+19,0.0
22,1.9884285824390884e+30,116772.44179996004,1.3713921379266945e+19,0.0
23,1.988428582644431e+30,116821.45246805986,2.058575952521091e+18,0.0
24,1.9884285823824658e+30,116764.33943801744,1.6930508831075381e+19,0.0
25,1.9884285825766503e+30,116798.81863123877,5.903686644176067e+18,0.0
26,1.9884285823125832e+30,116755.52592228637,2.0901515852504044e+19,0.0
27,1.9884285826192597e+30,116811.32233376712,3.486149979487558e+18,0.0
28,1.9884285825379855e+30,116789.95112642221,8.09820039812057e+18,0.0
29,1.9884285825766503e+30,116798.81863123877,5.903686644176067e+18,0.0
30,1.9884285825964175e+30,116804.13786899838,4.782034065454195e+18,0.0
31,1.988428582630937e+30,116815.63187947698,2.8238043893707986e+18,0.0
32,1.9884285826403974e+30,116819.59337302404,2.2872986103251878e+18,0.0
33,1.9884285823824658e+30,116764.33943801744,1.6930508831075381e+19,0.0
34,1.9884285822717262e+30,116750.83322418875,2.3223701265505427e+19,0.0
35,1.9884285826480614e+30,116823.23490150733,1.8527245727738004e+18,0.0
36,1.988428582412265e+30,116768.4758204185,1.5237576630787064e+19,0.0
37,1.9884285825766503e+30,116798.81863123877,5.903686644176067e+18,0.0
38,1.988428581988551e+30,116724.1679677455,3.932756682121565e+19,0.0
39,1.9884285823125832e+30,116755.52592228637,2.0901515852504044e+19,0.0
40,1.988428582412265e+30,116768.4758204185,1.5237576630787064e+19,0.0
41,1.9884285823824658e+30,116764.33943801744,1.6930508831075381e+19,0.0
42,1.9884285824390884e+30,116772.44179996004,1.3713921379266945e+19,0.0
43,1.9884285823125832e+30,116755.52592228637,2.0901515852504044e+19,0.0
44,1.9884285824632328e+30,116776.2443847421,1.2342617612225663e+19,0.0
45,1.9884285821199014e+30,116735.51085420777,3.1856009728541114e+19,0.0
46,1.9884285821759155e+30,116740.83451208739,2.867069623073429e+19,0.0
47,1.9884285825379855e+30,116789.95112642221,8.09820039812057e+18,0.0
48,1.9884285823493607e+30,116760.02534520596,1.881152365788231e+19,0.0
49,1.9884285825379855e+30,116789.95112642221,8.09820039812057e+18,0.0
50,1.9884285826254054e+30,116813.52246227518,3.137547975032636e+18,0.0
51,1.9884285825522515e+30,116793.03220435049,7.288422634730975e+18,0.0
52,1.9884285825870536e+30,116801.53421973207,5.313345141842041e+18,0.0
53,1.988428582412265e+30,116768.4758204185,1.5237576630787064e+19,0.0
54,1.9884285825650924e+30,116795.98629692858,6.559616851174271e+18,0.0
55,1.9884285825522515e+30,116793.03220435049,7.288422634730975e+18,0.0
56,1.988428582412265e+30,116768.4758204185,1.5237576630787064e+19,0.0
57,1.9884285823125832e+30,116755.52592228637,2.0901515852504044e+19,0.0
58,1.9884285821759155e+30,116740.83451208739,2.867069623073429e+19,0.0
59,1.9884285822263378e+30,116745.93896669456,2.580387467379838e+19,0.0
60,1.9884285825650924e+30,116795.98629692858,6.559616851174271e+18,0.0
61,1.9884285819117625e+30,116718.12874129941,4.369679936285761e+19,0.0
62,1.9884285826048457e+30,116806.63418818182,4.3038508830405745e+18,0.0
63,1.9884285821199014e+30,116735.51085420777,3.1856009728541114e+19,0.0
64,1.9884285824390884e+30,116772.44179996004,1.3713921379266945e+19,0.0
65,1.988428582412265e+30,116768.4758204185,1.5237576630787064e+19,0.0
66,1.9884285822263378e+30,116745.93896669456,2.580387467379838e+19,0.0
67,1.9884285823493607e+30,116760.02534520596,1.881152365788231e+19,0.0
68,1.9884285822717262e+30,116750.83322418875,2.3223701265505427e+19,0.0
69,1.9884285825379855e+30,116789.95112642221,8.09820039812057e+18,0.0
70,1.9884285825766503e+30,116798.81863123877,5.903686644176067e+18,0.0
71,1.9884285822263378e+30,116745.93896669456,2.580387467379838e+19,0.0
72,1.9884285823824658e+30,116764.33943801744,1.6930508831075381e+19,0.0
73,1.9884285823824658e+30,116764.33943801744,1.6930508831075381e+19,0.0
74,1.9884285823493607e+30,116760.02534520596,1.881152365788231e+19,0.0
75,1.9884285825870536e+30,116801.53421973207,5.313345141842041e+18,0.0
76,1.9884285826254054e+30,116813.52246227518,3.137547975032636e+18,0.0
77,1.9884285822263378e+30,116745.93896669456,2.580387467379838e+19,0.0
78,1.9884285822717262e+30,116750.83322418875,2.3223701265505427e+19,0.0
79,1.988428582651329e+30,116824.9438321908,1.6674574787116713e+18,0.0
80,1.9884285826680813e+30,116836.30771404703,7.178011201095862e+17,0.0
81,1.9884285824849658e+30,116779.89029560085,1.1108432106048289e+19,0.0
82,1.9884285823824658e+30,116764.33943801744,1.6930508831075381e+19,0.0
83,1.988428582635916e+30,116817.65432205178,2.5414336249102387e+18,0.0
84,1.9884285823125832e+30,116755.52592228637,2.0901515852504044e+19,0.0
85,1.9884285823493607e+30,116760.02534520596,1.881152365788231e+19,0.0
86,1.988428582630937e+30,116815.63187947698,2.8238043893707986e+18,0.0
87,1.988428582412265e+30,116768.4758204185,1.5237576630787064e+19,0.0
88,1.9884285823125832e+30,116755.52592228637,2.0901515852504044e+19,0.0
89,1.9884285824849658e+30,116779.89029560085,1.1108432106048289e+19,0.0
90,1.9884285824632328e+30,116776.2443847421,1.2342617612225663e+19,0.0
91,1.9884285822717262e+30,116750.83322418875,2.3223701265505427e+19,0.0
92,1.9884285824390884e+30,116772.44179996004,1.3713921379266945e+19,0.0
93,1.9884285823824658e+30,116764.33943801744,1.6930508831075381e+19,0.0
94,1.988428582412265e+30,116768.4758204185,1.5237576630787064e+19,0.0
95,1.9884285826480614e+30,116823.23490150733,1.8527245727738004e+18,0.0
96,1.9884285824849658e+30,116779.89029560085,1.1108432106048289e+19,0.0
97,1.9884285823824658e+30,116764.33943801744,1.6930508831075381e+19,0.0
98,1.988428581988551e+30,116724.1679677455,3.932756682121565e+19,0.0
99,1.9884285822263378e+30,116745.93896669456,2.580387467379838e+19,0.0
100,1.9884285824390884e+30,116772.44179996004,1.3713921379266945e+19,0.0
101,1.9884285824849658e+30,116779.89029560085,1.1108432106048289e+19,0.0
102,1.9884285826569168e+30,116828.1531760672,1.3506487159738045e+18,0.0
103,1.9884285826614435e+30,116831.10326542977,1.0940315341615656e+18,0.0
104,1.9884285823493607e+30,116760.02534520596,1.881152365788231e+19,0.0
105,1.9884285823493607e+30,116760.02534520596,1.881152365788231e+19,0.0
106,1.9884285826254054e+30,116813.52246227518,3.137547975032636e+18,0.0
107,1.9884285825379855e+30,116789.95112642221,8.09820039812057e+18,0.0
108,1.9884285826480614e+30,116823.23490150733,1.8527245727738004e+18,0.0
109,1.9884285826124317e+30,116809.02759705517,3.87348324582162e+18,0.0
110,1.9884285821199014e+30,116735.51085420777,3.1856009728541114e+19,0.0
111,1.988428582635916e+30,116817.65432205178,2.5414336249102387e+18,0.0
112,1.9884285823493607e+30,116760.02534520596,1.881152365788231e+19,0.0
113,1.988428582635916e+30,116817.65432205178,2.5414336249102387e+18,0.0
114,1.9884285825221362e+30,116786.73761229044,8.997946004699514e+18,0.0
115,1.9884285822717262e+30,116750.83322418875,2.3223701265505427e+19,0.0
116,1.9884285824390884e+30,116772.44179996004,1.3713921379266945e+19,0.0
117,1.9884285826124317e+30,116809.02759705517,3.87348324582162e+18,0.0
118,1.9884285825964175e+30,116804.13786899838,4.782034065454195e+18,0.0
119,1.9884285824849658e+30,116779.89029560085,1.1108432106048289e+19,0.0
120,1.988428582504528e+30,116783.3859778064,9.997654695632339e+18,0.0
121,1.9884285825964175e+30,116804.13786899838,4.782034065454195e+18,0.0
122,1.9884285822263378e+30,116745.93896669456,2.580387467379838e+19,0.0
123,1.9884285825964175e+30,116804.13786899838,4.782034065454195e+18,0.0
124,1.9884285826192597e+30,116811.32233376712,3.486149979487558e+18,0.0
125,1.9884285824849658e+30,116779.89029560085,1.1108432106048289e+19,0.0
126,1.9884285825766503e+30,116798.81863123877,5.903686644176067e+18,0.0
127,1.9884285825964175e+30,116804.13786899838,4.782034065454195e+18,0.0
128,1.9884285822717262e+30,116750.83322418875,2.3223701265505427e+19,0.0
129,1.9884285823125832e+30,116755.52592228637,2.0901515852504044e+19,0.0
130,1.9884285825221362e+30,116786.73761229044,8.997946004699514e+18,0.0
131,1.9884285826124317e+30,116809.02759705517,3.87348324582162e+18,0.0
132,1.9884285823824658e+30,116764.33943801744,1.6930508831075381e+19,0.0
133,1.9884285824632328e+30,116776.2443847421,1.2342617612225663e+19,0.0
134,1.9884285821759155e+30,116740.83451208739,2.867069623073429e+19,0.0
135,1.988428582057676e+30,116729.95860288847,3.539519620535944e+19,0.0
136,1.9884285823125832e+30,116755.52592228637,2.0901515852504044e+19,0.0
137,1.9884285825522515e+30,116793.03220435049,7.288422634730975e+18,0.0
138,1.9884285826724374e+30,116840.70517073412,4.7095321228353114e+17,0.0
139,1.9884285821759155e+30,116740.83451208739,2.867069623073429e+19,0.0
140,1.9884285825766503e+30,116798.81863123877,5.903686644176067e+18,0.0
141,1.9884285826732686e+30,116841.69355059235,4.23858679425218e+17,0.0
142,1.9884285826569168e+30,116828.1531760672,1.3506487159738045e+18,0.0
143,1.9884285826680813e+30,116836.30771404703,7.178011201095862e+17,0.0
144,1.9884285822717262e+30,116750.83322418875,2.3223701265505427e+19,0.0
145,1.9884285826732686e+30,116841.69355059235,4.23858679425218e+17,0.0
146,1.9884285825766503e+30,116798.81863123877,5.903686644176067e+18,0.0
147,1.9884285823125832e+30,116755.52592228637,2.0901515852504044e+19,0.0
148,1.9884285821199014e+30,116735.51085420777,3.1856009728541114e+19,0.0
149,1.988428582635916e+30,116817.65432205178,2.5414336249102387e+18,0.0
150,1.988428582651329e+30,116824.9438321908,1.6674574787116713e+18,0.0
151,1.9884285825522515e+30,116793.03220435049,7.288422634730975e+18,0.0
152,1.9884285825522515e+30,116793.03220435049,7.288422634730975e+18,0.0
153,1.9884285825379855e+30,116789.95112642221,8.09820039812057e+18,0.0
154,1.9884285826592993e+30,116829.65927819039,1.2155872900128264e+18,0.0
155,1.9884285826651106e+30,116833.8150305896,8.861700652360471e+17,0.0
156,1.9884285824390884e+30,116772.44179996004,1.3713921379266945e+19,0.0
157,1.988428582651329e+30,116824.9438321908,1.6674574787116713e+18,0.0
158,1.9884285825221362e+30,116786.73761229044,8.997946004699514e+18,0.0
159,1.9884285824390884e+30,116772.44179996004,1.3713921379266945e+19,0.0
160,1.9884285826569168e+30,116828.1531760672,1.3506487159738045e+18,0.0
161,1.9884285822263378e+30,116745.93896669456,2.580387467379838e+19,0.0
162,1.9884285825766503e+30,116798.81863123877,5.903686644176067e+18,0.0
163,1.9884285826403974e+30,116819.59337302404,2.2872986103251878e+18,0.0
164,1.988428582504528e+30,116783.3859778064,9.997654695632339e+18,0.0
165,1.9884285825221362e+30,116786.73761229044,8.997946004699514e+18,0.0
166,1.9884285826542699e+30,116826.58228896909,1.500716358630722e+18,0.0
167,1.988428582669348e+30,116837.47748555496,6.460224302607286e+17,0.0
168,1.9884285823824658e+30,116764.33943801744,1.6930508831075381e+19,0.0
169,1.9884285825221362e+30,116786.73761229044,8.997946004699514e+18,0.0
170,1.9884285826192597e+30,116811.32233376712,3.486149979487558e+18,0.0
171,1.9884285826124317e+30,116809.02759705517,3.87348324582162e+18,0.0
172,1.9884285825766503e+30,116798.81863123877,5.903686644176067e+18,0.0
173,1.9884285826048457e+30,116806.63418818182,4.3038508830405745e+18,0.0
174,1.9884285821759155e+30,116740.83451208739,2.867069623073429e+19,0.0
175,1.9884285823824658e+30,116764.33943801744,1.6930508831075381e+19,0.0
176,1.988428582644431e+30,116821.45246805986,2.058575952521091e+18,0.0
177,1.9884285826124317e+30,116809.02759705517,3.87348324582162e+18,0.0
178,1.988428582504528e+30,116783.3859778064,9.997654695632339e+18,0.0
179,1.9884285825870536e+30,116801.53421973207,5.313345141842041e+18,0.0
180,1.9884285826633736e+30,116832.48769796746,9.846309461973074e+17,0.0
181,1.9884285826192597e+30,116811.32233376712,3.486149979487558e+18,0.0
182,1.9884285822717262e+30,116750.83322418875,2.3223701265505427e+19,0.0
183,1.988428582669348e+30,116837.47748555496,6.460224302607286e+17,0.0
184,1.9884285824632328e+30,116776.2443847421,1.2342617612225663e+19,0.0
185,1.9884285826569168e+30,116828.1531760672,1.3506487159738045e+18,0.0
186,1.9884285826254054e+30,116813.52246227518,3.137547975032636e+18,0.0
187,1.9884285824390884e+30,116772.44179996004,1.3713921379266945e+19,0.0
188,1.9884285824849658e+30,116779.89029560085,1.1108432106048289e+19,0.0
189,1.9884285826124317e+30,116809.02759705517,3.87348324582162e+18,0.0
190,1.9884285826048457e+30,116806.63418818182,4.3038508830405745e+18,0.0
191,1.9884285825221362e+30,116786.73761229044,8.997946004699514e+18,0.0
192,1.9884285825870536e+30,116801.53421973207,5.313345141842041e+18,0.0
193,1.9884285825221362e+30,116786.73761229044,8.997946004699514e+18,0.0
194,1.9884285826666742e+30,116835.08761701506,7.975549688166473e+17,0.0
195,1.9884285826732686e+30,116841.69355059235,4.23858679425218e+17,0.0
196,1.9884285823824658e+30,116764.33943801744,1.6930508831075381e+19,0.0
197,1.9884285825870536e+30,116801.53421973207,5.313345141842041e+18,0.0
198,1.9884285825379855e+30,116789.95112642221,8.09820039812057e+18,0.0
199,1.9884285824849658e+30,116779.89029560085,1.1108432106048289e+19,0.0
200,1.9884285826403974e+30,116819.59337302404,2.2872986103251878e+18,0.0
201,1.9884285826480614e+30,116823.23490150733,1.8527245727738004e+18,0.0
202,1.9884285823824658e+30,116764.33943801744,1.6930508831075381e+19,0.0
203,1.9884285822717262e+30,116750.83322418875,2.3223701265505427e+19,0.0
204,1.9884285825766503e+30,116798.81863123877,5.903686644176067e+18,0.0
205,1.9884285824849658e+30,116779.89029560085,1.1108432106048289e+19,0.0
206,1.988428582412265e+30,116768.4758204185,1.5237576630787064e+19,0.0
207,1.9884285823824658e+30,116764.33943801744,1.6930508831075381e+19,0.0
208,1.988428582630937e+30,116815.63187947698,2.8238043893707986e+18,0.0
209,1.988428582412265e+30,116768.4758204185,1.5237576630787064e+19,0.0
210,1.9884285823493607e+30,116760.02534520596,1.881152365788231e+19,0.0
211,1.9884285821199014e+30,116735.51085420777,3.1856009728541114e+19,0.0
212,1.9884285826403974e+30,116819.59337302404,2.2872986103251878e+18,0.0
213,1.9884285824390884e+30,116772.44179996004,1.3713921379266945e+19,0.0
214,1.9884285823125832e+30,116755.52592228637,2.0901515852504044e+19,0.0
215,1.988428582504528e+30,116783.3859778064,9.997654695632339e+18,0.0
216,1.9884285823493607e+30,116760.02534520596,1.881152365788231e+19,0.0
217,1.988428582669348e+30,116837.47748555496,6.460224302607286e+17,0.0
218,1.9884285826793634e+30,116852.95729397889,7.85435337818068e+16,0.0
219,1.9884285826124317e+30,116809.02759705517,3.87348324582162e+18,0.0
220,1.9884285825650924e+30,116795.98629692858,6.559616851174271e+18,0.0
221,1.988428582412265e+30,116768.4758204185,1.5237576630787064e+19,0.0
222,1.9884285825870536e+30,116801.53421973207,5.313345141842041e+18,0.0
223,1.9884285823493607e+30,116760.02534520596,1.881152365788231e+19,0.0
224,1.9884285826254054e+30,116813.52246227518,3.137547975032636e+18,0.0
225,1.9884285824632328e+30,116776.2443847421,1.2342617612225663e+19,0.0
226,1.9884285823824658e+30,116764.33943801744,1.6930508831075381e+19,0.0
227,1.9884285825766503e+30,116798.81863123877,5.903686644176067e+18,0.0
228,1.9884285825379855e+30,116789.95112642221,8.09820039812057e+18,0.0
229,1.9884285826192597e+30,116811.32233376712,3.486149979487558e+18,0.0
230,1.9884285824849658e+30,116779.89029560085,1.1108432106048289e+19,0.0
231,1.988428582635916e+30,116817.65432205178,2.5414336249102387e+18,0.0
232,1.9884285824849658e+30,116779.89029560085,1.1108432106048289e+19,0.0
233,1.9884285824632328e+30,116776.2443847421,1.2342617612225663e+19,0.0
234,1.9884285826614435e+30,116831.10326542977,1.0940315341615656e+18,0.0
235,1.988428582504528e+30,116783.3859778064,9.997654695632339e+18,0.0
236,1.9884285824849658e+30,116779.89029560085,1.1108432106048289e+19,0.0
237,1.9884285826542699e+30,116826.58228896909,1.500716358630722e+18,0.0
238,1.9884285823493607e+30,116760.02534520596,1.881152365788231e+19,0.0
239,1.9884285825221362e+30,116786.73761229044,8.997946004699514e+18,0.0
240,1.988428582635916e+30,116817.65432205178,2.5414336249102387e+18,0.0
241,1.9884285825379855e+30,116789.95112642221,8.09820039812057e+18,0.0
242,1.9884285823493607e+30,116760.02534520596,1.881152365788231e+19,0.0
243,1.9884285825522515e+30,116793.03220435049,7.288422634730975e+18,0.0
244,1.9884285826254054e+30,116813.52246227518,3.137547975032636e+18,0.0
245,1.9884285823824658e+30,116764.33943801744,1.6930508831075381e+19,0.0
246,1.9884285826048457e+30,116806.63418818182,4.3038508830405745e+18,0.0
247,1.9884285826124317e+30,116809.02759705517,3.87348324582162e+18,0.0
248,1.9884285825379855e+30,116789.95112642221,8.09820039812057e+18,0.0
249,1.988428582677529e+30,116848.26564589071,1.8245951968928083e+17,0.0
250,1.9884285824390884e+30,116772.44179996004,1.3713921379266945e+19,0.0
251,1.988428582504528e+30,116783.3859778064,9.997654695632339e+18,0.0
252,1.9884285825964175e+30,116804.13786899838,4.782034065454195e+18,0.0
253,1.988428582504528e+30,116783.3859778064,9.997654695632339e+18,0.0
254,1.9884285824390884e+30,116772.44179996004,1.3713921379266945e+19,0.0
255,1.9884285825650924e+30,116795.98629692858,6.559616851174271e+18,0.0
256,1.988428582669348e+30,116837.47748555496,6.460224302607286e+17,0.0
257,1.9884285825522515e+30,116793.03220435049,7.288422634730975e+18,0.0
258,1.988428582412265e+30,116768.4758204185,1.5237576630787064e+19,0.0
259,1.988428582651329e+30,116824.9438321908,1.6674574787116713e+18,0.0
260,1.9884285823125832e+30,116755.52592228637,2.0901515852504044e+19,0.0
261,1.9884285825522515e+30,116793.03220435049,7.288422634730975e+18,0.0
262,1.9884285825964175e+30,116804.13786899838,4.782034065454195e+18,0.0
263,1.9884285826771712e+30,116847.56005297485,2.0273253047679904e+17,0.0
264,1.988428582412265e+30,116768.4758204185,1.5237576630787064e+19,0.0
265,1.9884285826192597e+30,116811.32233376712,3.486149979487558e+18,0.0
266,1.9884285826048457e+30,116806.63418818182,4.3038508830405745e+18,0.0
267,1.9884285825870536e+30,116801.53421973207,5.313345141842041e+18,0.0
268,1.9884285825221362e+30,116786.73761229044,8.997946004699514e+18,0.0
269,1.9884285826542699e+30,116826.58228896909,1.500716358630722e+18,0.0
270,1.9884285825522515e+30,116793.03220435049,7.288422634730975e+18,0.0
271,1.9884285825650924e+30,116795.98629692858,6.559616851174271e+18,0.0
272,1.988428582651329e+30,116824.9438321908,1.6674574787116713e+18,0.0
273,1.9884285825522515e+30,116793.03220435049,7.288422634730975e+18,0.0
274,1.9884285826633736e+30,116832.48769796746,9.846309461973074e+17,0.0
275,1.9884285823493607e+30,116760.02534520596,1.881152365788231e+19,0.0
276,1.9884285824390884e+30,116772.44179996004,1.3713921379266945e+19,0.0
277,1.9884285826192597e+30,116811.32233376712,3.486149979487558e+18,0.0
278,1.9884285826254054e+30,116813.52246227518,3.137547975032636e+18,0.0
279,1.9884285823493607e+30,116760.02534520596,1.881152365788231e+19,0.0
280,1.9884285823125832e+30,116755.52592228637,2.0901515852504044e+19,0.0
281,1.9884285824849658e+30,116779.89029560085,1.1108432106048289e+19,0.0
282,1.9884285823493607e+30,116760.02534520596,1.881152365788231e+19,0.0
283,1.9884285826752958e+30,116844.42071460526,3.0899456306985645e+17,0.0
284,1.9884285826403974e+30,116819.59337302404,2.2872986103251878e+18,0.0
285,1.9884285823824658e+30,116764.33943801744,1.6930508831075381e+19,0.0
286,1.9884285824390884e+30,116772.44179996004,1.3713921379266945e+19,0.0
287,1.9884285825522515e+30,116793.03220435049,7.288422634730975e+18,0.0
288,1.9884285826048457e+30,116806.63418818182,4.3038508830405745e+18,0.0
289,1.9884285825870536e+30,116801.53421973207,5.313345141842041e+18,0.0
290,1.9884285824390884e+30,116772.44179996004,1.3713921379266945e+19,0.0
291,1.9884285823493607e+30,116760.02534520596,1.881152365788231e+19,0.0
292,1.988428582677851e+30,116848.94212876132,1.642137767583324e+17,0.0
293,1.9884285823824658e+30,116764.33943801744,1.6930508831075381e+19,0.0
294,1.988428582630937e+30,116815.63187947698,2.8238043893707986e+18,0.0
295,1.9884285826480614e+30,116823.23490150733,1.8527245727738004e+18,0.0
296,1.9884285825379855e+30,116789.95112642221,8.09820039812057e+18,0.0
297,1.9884285825650924e+30,116795.98629692858,6.559616851174271e+18,0.0
298,1.9884285823125832e+30,116755.52592228637,2.0901515852504044e+19,0.0
299,1.9884285821199014e+30,116735.51085420777,3.1856009728541114e+19,0.0
300,1.9884285821759155e+30,116740.83451208739,2.867069623073429e+19,0.0
301,1.9884285824632328e+30,116776.2443847421,1.2342617612225663e+19,0.0
302,1.9884285823493607e+30,116760.02534520596,1.881152365788231e+19,0.0
303,1.9884285826124317e+30,116809.02759705517,3.87348324582162e+18,0.0
304,1.9884285824390884e+30,116772.44179996004,1.3713921379266945e+19,0.0
305,1.9884285826480614e+30,116823.23490150733,1.8527245727738004e+18,0.0
306,1.9884285825870536e+30,116801.53421973207,5.313345141842041e+18,0.0
307,1.9884285825221362e+30,116786.73761229044,8.997946004699514e+18,0.0
308,1.9884285823824658e+30,116764.33943801744,1.6930508831075381e+19,0.0
309,1.9884285826480614e+30,116823.23490150733,1.8527245727738004e+18,0.0
310,1.9884285825870536e+30,116801.53421973207,5.313345141842041e+18,0.0
311,1.9884285825650924e+30,116795.98629692858,6.559616851174271e+18,0.0
312,1.9884285822717262e+30,116750.83322418875,2.3223701265505427e+19,0.0
313,1.9884285826542699e+30,116826.58228896909,1.500716358630722e+18,0.0
314,1.9884285826192597e+30,116811.32233376712,3.486149979487558e+18,0.0
315,1.9884285825522515e+30,116793.03220435049,7.288422634730975e+18,0.0
316,1.9884285825964175e+30,116804.13786899838,4.782034065454195e+18,0.0
317,1.9884285826048457e+30,116806.63418818182,4.3038508830405745e+18,0.0
318,1.988428582057676e+30,116729.95860288847,3.539519620535944e+19,0.0
319,1.988428582630937e+30,116815.63187947698,2.8238043893707986e+18,0.0
320,1.9884285822263378e+30,116745.93896669456,2.580387467379838e+19,0.0
321,1.9884285826403974e+30,116819.59337302404,2.2872986103251878e+18,0.0
322,1.988428582412265e+30,116768.4758204185,1.5237576630787064e+19,0.0
323,1.9884285824849658e+30,116779.89029560085,1.1108432106048289e+19,0.0
324,1.9884285826651106e+30,116833.8150305896,8.861700652360471e+17,0.0
325,1.9884285826124317e+30,116809.02759705517,3.87348324582162e+18,0.0
326,1.9884285823493607e+30,116760.02534520596,1.881152365788231e+19,0.0
327,1.9884285824632328e+30,116776.2443847421,1.2342617612225663e+19,0.0
328,1.988428582635916e+30,116817.65432205178,2.5414336249102387e+18,0.0
329,1.9884285826254054e+30,116813.52246227518,3.137547975032636e+18,0.0
330,1.9884285825964175e+30,116804.13786899838,4.782034065454195e+18,0.0
331,1.9884285826740165e+30,116842.64115859361,3.8147349174246125e+17,0.0
332,1.988428582504528e+30,116783.3859778064,9.997654695632339e+18,0.0
333,1.9884285824849658e+30,116779.89029560085,1.1108432106048289e+19,0.0
334,1.9884285825221362e+30,116786.73761229044,8.997946004699514e+18,0.0
335,1.9884285823824658e+30,116764.33943801744,1.6930508831075381e+19,0.0
336,1.9884285825221362e+30,116786.73761229044,8.997946004699514e+18,0.0
337,1.988428582630937e+30,116815.63187947698,2.8238043893707986e+18,0.0
338,1.9884285825650924e+30,116795.98629692858,6.559616851174271e+18,0.0
339,1.9884285824849658e+30,116779.89029560085,1.1108432106048289e+19,0.0
340,1.9884285824849658e+30,116779.89029560085,1.1108432106048289e+19,0.0
341,1.9884285824390884e+30,116772.44179996004,1.3713921379266945e+19,0.0
342,1.9884285825379855e+30,116789.95112642221,8.09820039812057e+18,0.0
343,1.988428582412265e+30,116768.4758204185,1.5237576630787064e+19,0.0
344,1.9884285823493607e+30,116760.02534520596,1.881152365788231e+19,0.0
345,1.9884285826569168e+30,116828.1531760672,1.3506487159738045e+18,0.0
346,1.988428582651329e+30,116824.9438321908,1.6674574787116713e+18,0.0
347,1.9884285825870536e+30,116801.53421973207,5.313345141842041e+18,0.0
348,1.9884285825964175e+30,116804.13786899838,4.782034065454195e+18,0.0
349,1.988428582504528e+30,116783.3859778064,9.997654695632339e+18,0.0
350,1.9884285825522515e+30,116793.03220435049,7.288422634730975e+18,0.0
351,1.9884285825870536e+30,116801.53421973207,5.313345141842041e+18,0.0
352,1.9884285826124317e+30,116809.02759705517,3.87348324582162e+18,0.0
353,1.9884285825379855e+30,116789.95112642221,8.09820039812057e+18,0.0
354,1.9884285823493607e+30,116760.02534520596,1.881152365788231e+19,0.0
355,1.9884285825221362e+30,116786.73761229044,8.997946004699514e+18,0.0
356,1.988428582412265e+30,116768.4758204185,1.5237576630787064e+19,0.0
357,1.9884285824849658e+30,116779.89029560085,1.1108432106048289e+19,0.0
358,1.9884285824390884e+30,116772.44179996004,1.3713921379266945e+19,0.0
359,1.9884285825221362e+30,116786.73761229044,8.997946004699514e+18,0.0
360,1.9884285822263378e+30,116745.93896669456,2.580387467379838e+19,0.0
361,1.9884285823125832e+30,116755.52592228637,2.0901515852504044e+19,0.0
362,1.9884285822717262e+30,116750.83322418875,2.3223701265505427e+19,0.0
363,1.988428582504528e+30,116783.3859778064,9.997654695632339e+18,0.0
364,1.9884285825964175e+30,116804.13786899838,4.782034065454195e+18,0.0
365,1.9884285823125832e+30,116755.52592228637,2.0901515852504044e+19,0.0
366,1.9884285825650924e+30,116795.98629692858,6.559616851174271e+18,0.0
367,1.9884285824632328e+30,116776.2443847421,1.2342617612225663e+19,0.0
368,1.9884285826569168e+30,116828.1531760672,1.3506487159738045e+18,0.0
369,1.9884285826804648e+30,116858.44051781489,1.6171583936670894e+16,0.0
370,1.9884285824390884e+30,116772.44179996004,1.3713921379266945e+19,0.0
371,1.9884285825870536e+30,116801.53421973207,5.313345141842041e+18,0.0
372,1.988428582057676e+30,116729.95860288847,3.539519620535944e+19,0.0
373,1.988428582504528e+30,116783.3859778064,9.997654695632339e+18,0.0
374,1.988428582651329e+30,116824.9438321908,1.6674574787116713e+18,0.0
375,1.9884285825221362e+30,116786.73761229044,8.997946004699514e+18,0.0
376,1.9884285825379855e+30,116789.95112642221,8.09820039812057e+18,0.0
377,1.9884285823493607e+30,116760.02534520596,1.881152365788231e+19,0.0
378,1.9884285823125832e+30,116755.52592228637,2.0901515852504044e+19,0.0
379,1.9884285825766503e+30,116798.81863123877,5.903686644176067e+18,0.0
380,1.9884285826192597e+30,116811.32233376712,3.486149979487558e+18,0.0
381,1.988428582635916e+30,116817.65432205178,2.5414336249102387e+18,0.0
382,1.9884285826651106e+30,116833.8150305896,8.861700652360471e+17,0.0
383,1.9884285821759155e+30,116740.83451208739,2.867069623073429e+19,0.0
384,1.988428582412265e+30,116768.4758204185,1.5237576630787064e+19,0.0
385,1.9884285822717262e+30,116750.83322418875,2.3223701265505427e+19,0.0
386,1.9884285824632328e+30,116776.2443847421,1.2342617612225663e+19,0.0
387,1.9884285823493607e+30,116760.02534520596,1.881152365788231e+19,0.0
388,1.9884285825650924e+30,116795.98629692858,6.559616851174271e+18,0.0
389,1.988428582504528e+30,116783.3859778064,9.997654695632339e+18,0.0
390,1.9884285824849658e+30,116779.89029560085,1.1108432106048289e+19,0.0
391,1.988428582412265e+30,116768.4758204185,1.5237576630787064e+19,0.0
392,1.9884285823493607e+30,116760.02534520596,1.881152365788231e+19,0.0
393,1.9884285823125832e+30,116755.52592228637,2.0901515852504044e+19,0.0
394,1.9884285825650924e+30,116795.98629692858,6.559616851174271e+18,0.0
395,1.988428582412265e+30,116768.4758204185,1.5237576630787064e+19,0.0
396,1.9884285823125832e+30,116755.52592228637,2.0901515852504044e+19,0.0
397,1.9884285823125832e+30,116755.52592228637,2.0901515852504044e+19,0.0
398,1.9884285825522515e+30,116793.03220435049,7.288422634730975e+18,0.0
399,1.9884285825650924e+30,116795.98629692858,6.559616851174271e+18,0.0
400,1.9884285825766503e+30,116798.81863123877,5.903686644176067e+18,0.0
401,1.9884285824849658e+30,116779.89029560085,1.1108432106048289e+19,0.0
402,1.9884285825522515e+30,116793.03220435049,7.288422634730975e+18,0.0
403,1.9884285821759155e+30,116740.83451208739,2.867069623073429e+19,0.0
404,1.9884285822263378e+30,116745.93896669456,2.580387467379838e+19,0.0
405,1.9884285826592993e+30,116829.65927819039,1.2155872900128264e+18,0.0
406,1.988428582412265e+30,116768.4758204185,1.5237576630787064e+19,0.0
407,1.9884285826680813e+30,116836.30771404703,7.178011201095862e+17,0.0
408,1.988428582412265e+30,116768.4758204185,1.5237576630787064e+19,0.0
409,1.9884285825650924e+30,116795.98629692858,6.559616851174271e+18,0.0
410,1.988428582412265e+30,116768.4758204185,1.5237576630787064e+19,0.0
411,1.9884285824632328e+30,116776.2443847421,1.2342617612225663e+19,0.0
412,1.9884285825221362e+30,116786.73761229044,8.997946004699514e+18,0.0
413,1.9884285825522515e+30,116793.03220435049,7.288422634730975e+18,0.0
414,1.9884285826796268e+30,116853.9031973569,6.362037559924539e+16,0.0
415,1.9884285825964175e+30,116804.13786899838,4.782034065454195e+18,0.0
416,1.9884285825379855e+30,116789.95112642221,8.09820039812057e+18,0.0
417,1.9884285822263378e+30,116745.93896669456,2.580387467379838e+19,0.0
418,1.9884285826254054e+30,116813.52246227518,3.137547975032636e+18,0.0
419,1.9884285825964175e+30,116804.13786899838,4.782034065454195e+18,0.0
420,1.9884285825870536e+30,116801.53421973207,5.313345141842041e+18,0.0
421,1.9884285826805985e+30,116859.83012198655,8594265209802129.0,0.0
422,1.9884285823824658e+30,116764.33943801744,1.6930508831075381e+19,0.0
423,1.9884285822717262e+30,116750.83322418875,2.3223701265505427e+19,0.0
424,1.988428582635916e+30,116817.65432205178,2.5414336249102387e+18,0.0
425,1.9884285821759155e+30,116740.83451208739,2.867069623073429e+19,0.0
426,1.988428582504528e+30,116783.3859778064,9.997654695632339e+18,0.0
427,1.9884285825522515e+30,116793.03220435049,7.288422634730975e+18,0.0
428,1.9884285825766503e+30,116798.81863123877,5.903686644176067e+18,0.0
429,1.9884285825221362e+30,116786.73761229044,8.997946004699514e+18,0.0
430,1.9884285826592993e+30,116829.65927819039,1.2155872900128264e+18,0.0
431,1.9884285822263378e+30,116745.93896669456,2.580387467379838e+19,0.0
432,1.9884285825964175e+30,116804.13786899838,4.782034065454195e+18,0.0
433,1.9884285826569168e+30,116828.1531760672,1.3506487159738045e+18,0.0
434,1.9884285823125832e+30,116755.52592228637,2.0901515852504044e+19,0.0
435,1.9884285824390884e+30,116772.44179996004,1.3713921379266945e+19,0.0
436,1.9884285826124317e+30,116809.02759705517,3.87348324582162e+18,0.0
437,1.9884285824390884e+30,116772.44179996004,1.3713921379266945e+19,0.0
438,1.988428582651329e+30,116824.9438321908,1.6674574787116713e+18,0.0
439,1.9884285822263378e+30,116745.93896669456,2.580387467379838e+19,0.0
440,1.9884285824632328e+30,116776.2443847421,1.2342617612225663e+19,0.0
441,1.9884285822717262e+30,116750.83322418875,2.3223701265505427e+19,0.0
442,1.9884285824632328e+30,116776.2443847421,1.2342617612225663e+19,0.0
443,1.9884285822717262e+30,116750.83322418875,2.3223701265505427e+19,0.0
444,1.988428582630937e+30,116815.63187947698,2.8238043893707986e+18,0.0
445,1.9884285824632328e+30,116776.2443847421,1.2342617612225663e+19,0.0
446,1.9884285823824658e+30,116764.33943801744,1.6930508831075381e+19,0.0
447,1.9884285825650924e+30,116795.98629692858,6.559616851174271e+18,0.0
448,1.9884285826732686e+30,116841.69355059235,4.23858679425218e+17,0.0
449,1.9884285826403974e+30,116819.59337302404,2.2872986103251878e+18,0.0
450,1.9884285826746897e+30,116843.54967595031,3.433267295427292e+17,0.0
451,1.988428582504528e+30,116783.3859778064,9.997654695632339e+18,0.0
452,1.9884285824849658e+30,116779.89029560085,1.1108432106048289e+19,0.0
453,1.9884285823493607e+30,116760.02534520596,1.881152365788231e+19,0.0
454,1.9884285825221362e+30,116786.73761229044,8.997946004699514e+18,0.0
455,1.9884285824632328e+30,116776.2443847421,1.2342617612225663e+19,0.0
456,1.9884285823493607e+30,116760.02534520596,1.881152365788231e+19,0.0
457,1.9884285826480614e+30,116823.23490150733,1.8527245727738004e+18,0.0
458,1.9884285821759155e+30,116740.83451208739,2.867069623073429e+19,0.0
459,1.9884285823824658e+30,116764.33943801744,1.6930508831075381e+19,0.0
460,1.9884285826403974e+30,116819.59337302404,2.2872986103251878e+18,0.0
461,1.9884285825522515e+30,116793.03220435049,7.288422634730975e+18,0.0
462,1.9884285823824658e+30,116764.33943801744,1.6930508831075381e+19,0.0
463,1.9884285821759155e+30,116740.83451208739,2.867069623073429e+19,0.0
464,1.988428582630937e+30,116815.63187947698,2.8238043893707986e+18,0.0
465,1.9884285822263378e+30,116745.93896669456,2.580387467379838e+19,0.0
466,1.9884285821759155e+30,116740.83451208739,2.867069623073429e+19,0.0
467,1.988428582057676e+30,116729.95860288847,3.539519620535944e+19,0.0
468,1.9884285826048457e+30,116806.63418818182,4.3038508830405745e+18,0.0
469,1.988428582412265e+30,116768.4758204185,1.5237576630787064e+19,0.0
470,1.9884285825964175e+30,116804.13786899838,4.782034065454195e+18,0.0
471,1.9884285825870536e+30,116801.53421973207,5.313345141842041e+18,0.0
472,1.9884285824390884e+30,116772.44179996004,1.3713921379266945e+19,0.0
473,1.9884285826254054e+30,116813.52246227518,3.137547975032636e+18,0.0
474,1.9884285826480614e+30,116823.23490150733,1.8527245727738004e+18,0.0
475,1.9884285825379855e+30,116789.95112642221,8.09820039812057e+18,0.0
476,1.9884285825221362e+30,116786.73761229044,8.997946004699514e+18,0.0
477,1.988428582635916e+30,116817.65432205178,2.5414336249102387e+18,0.0
478,1.9884285822263378e+30,116745.93896669456,2.580387467379838e+19,0.0
479,1.9884285826124317e+30,116809.02759705517,3.87348324582162e+18,0.0
480,1.9884285824632328e+30,116776.2443847421,1.2342617612225663e+19,0.0
481,1.9884285825221362e+30,116786.73761229044,8.997946004699514e+18,0.0
482,1.9884285822717262e+30,116750.83322418875,2.3223701265505427e+19,0.0
483,1.9884285826048457e+30,116806.63418818182,4.3038508830405745e+18,0.0
484,1.9884285824390884e+30,116772.44179996004,1.3713921379266945e+19,0.0
485,1.9884285825650924e+30,116795.98629692858,6.559616851174271e+18,0.0
486,1.9884285825379855e+30,116789.95112642221,8.09820039812057e+18,0.0
487,1.988428582057676e+30,116729.95860288847,3.539519620535944e+19,0.0
488,1.9884285825870536e+30,116801.53421973207,5.313345141842041e+18,0.0
489,1.9884285824390884e+30,116772.44179996004,1.3713921379266945e+19,0.0
490,1.9884285824632328e+30,116776.2443847421,1.2342617612225663e+19,0.0
491,1.9884285825964175e+30,116804.13786899838,4.782034065454195e+18,0.0
492,1.988428582504528e+30,116783.3859778064,9.997654695632339e+18,0.0
493,1.988428582504528e+30,116783.3859778064,9.997654695632339e+18,0.0
494,1.9884285822717262e+30,116750.83322418875,2.3223701265505427e+19,0.0
495,1.9884285825964175e+30,116804.13786899838,4.782034065454195e+18,0.0
496,1.9884285824849658e+30,116779.89029560085,1.1108432106048289e+19,0.0
497,1.9884285826048457e+30,116806.63418818182,4.3038508830405745e+18,0.0
498,1.9884285824849658e+30,116779.89029560085,1.1108432106048289e+19,0.0
499,1.988428582504528e+30,116783.3859778064,9.997654695632339e+18,0.0
500,1.9884285825650924e+30,116795.98629692858,6.559616851174271e+18,0.0
501,1.988428582630937e+30,116815.63187947698,2.8238043893707986e+18,0.0
502,1.9884285824632328e+30,116776.2443847421,1.2342617612225663e+19,0.0
503,1.9884285823125832e+30,116755.52592228637,2.0901515852504044e+19,0.0
504,1.9884285824632328e+30,116776.2443847421,1.2342617612225663e+19,0.0
505,1.988428582412265e+30,116768.4758204185,1.5237576630787064e+19,0.0
506,1.9884285823125832e+30,116755.52592228637,2.0901515852504044e+19,0.0
507,1.988428582630937e+30,116815.63187947698,2.8238043893707986e+18,0.0
508,1.9884285824632328e+30,116776.2443847421,1.2342617612225663e+19,0.0
509,1.9884285823493607e+30,116760.02534520596,1.881152365788231e+19,0.0
510,1.9884285826403974e+30,116819.59337302404,2.2872986103251878e+18,0.0
511,1.988428582669348e+30,116837.47748555496,6.460224302607286e+17,0.0
512,1.9884285823125832e+30,116755.52592228637,2.0901515852504044e+19,0.0
513,1.988428582644431e+30,116821.45246805986,2.058575952521091e+18,0.0
514,1.9884285824632328e+30,116776.2443847421,1.2342617612225663e+19,0.0
515,1.9884285825522515e+30,116793.03220435049,7.288422634730975e+18,0.0
516,1.9884285822263378e+30,116745.93896669456,2.580387467379838e+19,0.0
517,1.9884285821199014e+30,116735.51085420777,3.1856009728541114e+19,0.0
518,1.988428582635916e+30,116817.65432205178,2.5414336249102387e+18,0.0
519,1.988428582504528e+30,116783.3859778064,9.997654695632339e+18,0.0
520,1.9884285826767735e+30,116846.82409777357,2.252580552384356e+17,0.0
521,1.988428582412265e+30,116768.4758204185,1.5237576630787064e+19,0.0
522,1.988428582412265e+30,116768.4758204185,1.5237576630787064e+19,0.0
523,1.9884285821759155e+30,116740.83451208739,2.867069623073429e+19,0.0
524,1.9884285825964175e+30,116804.13786899838,4.782034065454195e+18,0.0
525,1.9884285826254054e+30,116813.52246227518,3.137547975032636e+18,0.0
526,1.9884285825766503e+30,116798.81863123877,5.903686644176067e+18,0.0
527,1.9884285825221362e+30,116786.73761229044,8.997946004699514e+18,0.0
528,1.9884285826403974e+30,116819.59337302404,2.2872986103251878e+18,0.0
529,1.988428582504528e+30,116783.3859778064,9.997654695632339e+18,0.0
530,1.9884285823125832e+30,116755.52592228637,2.0901515852504044e+19,0.0
531,1.988428582504528e+30,116783.3859778064,9.997654695632339e+18,0.0
532,1.9884285826254054e+30,116813.52246227518,3.137547975032636e+18,0.0
533,1.9884285825650924e+30,116795.98629692858,6.559616851174271e+18,0.0
534,1.9884285825379855e+30,116789.95112642221,8.09820039812057e+18,0.0
535,1.9884285825650924e+30,116795.98629692858,6.559616851174271e+18,0.0
536,1.988428582412265e+30,116768.4758204185,1.5237576630787064e+19,0.0
537,1.9884285826124317e+30,116809.02759705517,3.87348324582162e+18,0.0
538,1.988428582635916e+30,116817.65432205178,2.5414336249102387e+18,0.0
539,1.9884285826403974e+30,116819.59337302404,2.2872986103251878e+18,0.0
540,1.9884285824849658e+30,116779.89029560085,1.1108432106048289e+19,0.0
541,1.9884285825964175e+30,116804.13786899838,4.782034065454195e+18,0.0
542,1.9884285826403974e+30,116819.59337302404,2.2872986103251878e+18,0.0
543,1.9884285826403974e+30,116819.59337302404,2.2872986103251878e+18,0.0
544,1.988428582635916e+30,116817.65432205178,2.5414336249102387e+18,0.0
545,1.9884285823824658e+30,116764.33943801744,1.6930508831075381e+19,0.0
546,1.9884285824390884e+30,116772.44179996004,1.3713921379266945e+19,0.0
547,1.988428582504528e+30,116783.3859778064,9.997654695632339e+18,0.0
548,1.988428582412265e+30,116768.4758204185,1.5237576630787064e+19,0.0
549,1.9884285825221362e+30,116786.73761229044,8.997946004699514e+18,0.0
550,1.9884285826048457e+30,116806.63418818182,4.3038508830405745e+18,0.0
551,1.9884285825650924e+30,116795.98629692858,6.559616851174271e+18,0.0
552,1.9884285823493607e+30,116760.02534520596,1.881152365788231e+19,0.0
553,1.9884285825522515e+30,116793.03220435049,7.288422634730975e+18,0.0
554,1.9884285822263378e+30,116745.93896669456,2.580387467379838e+19,0.0
555,1.9884285822717262e+30,116750.83322418875,2.3223701265505427e+19,0.0
556,1.9884285825650924e+30,116795.98629692858,6.559616851174271e+18,0.0
557,1.988428582669348e+30,116837.47748555496,6.460224302607286e+17,0.0
558,1.9884285825379855e+30,116789.95112642221,8.09820039812057e+18,0.0
559,1.9884285825221362e+30,116786.73761229044,8.997946004699514e+18,0.0
560,1.988428582504528e+30,116783.3859778064,9.997654695632339e+18,0.0
561,1.988428582669348e+30,116837.47748555496,6.460224302607286e+17,0.0
562,1.988428582504528e+30,116783.3859778064,9.997654695632339e+18,0.0
563,1.9884285824390884e+30,116772.44179996004,1.3713921379266945e+19,0.0
564,1.9884285824390884e+30,116772.44179996004,1.3713921379266945e+19,0.0
565,1.9884285824849658e+30,116779.89029560085,1.1108432106048289e+19,0.0
566,1.9884285824390884e+30,116772.44179996004,1.3713921379266945e+19,0.0
567,1.9884285824390884e+30,116772.44179996004,1.3713921379266945e+19,0.0
568,1.9884285826480614e+30,116823.23490150733,1.8527245727738004e+18,0.0
569,1.9884285823824658e+30,116764.33943801744,1.6930508831075381e+19,0.0
570,1.9884285824849658e+30,116779.89029560085,1.1108432106048289e+19,0.0
571,1.9884285824849658e+30,116779.89029560085,1.1108432106048289e+19,0.0
572,1.9884285826124317e+30,116809.02759705517,3.87348324582162e+18,0.0
573,1.9884285822717262e+30,116750.83322418875,2.3223701265505427e+19,0.0
574,1.9884285825650924e+30,116795.98629692858,6.559616851174271e+18,0.0
575,1.9884285824849658e+30,116779.89029560085,1.1108432106048289e+19,0.0
576,1.9884285825522515e+30,116793.03220435049,7.288422634730975e+18,0.0
577,1.988428582504528e+30,116783.3859778064,9.997654695632339e+18,0.0
578,1.9884285822717262e+30,116750.83322418875,2.3223701265505427e+19,0.0
579,1.9884285825964175e+30,116804.13786899838,4.782034065454195e+18,0.0
580,1.988428582651329e+30,116824.9438321908,1.6674574787116713e+18,0.0
581,1.9884285825522515e+30,116793.03220435049,7.288422634730975e+18,0.0
582,1.9884285822263378e+30,116745.93896669456,2.580387467379838e+19,0.0
583,1.9884285823824658e+30,116764.33943801744,1.6930508831075381e+19,0.0
584,1.9884285825522515e+30,116793.03220435049,7.288422634730975e+18,0.0
585,1.9884285823824658e+30,116764.33943801744,1.6930508831075381e+19,0.0
586,1.9884285826569168e+30,116828.1531760672,1.3506487159738045e+18,0.0
587,1.9884285821759155e+30,116740.83451208739,2.867069623073429e+19,0.0
588,1.9884285826124317e+30,116809.02759705517,3.87348324582162e+18,0.0
589,1.9884285824632328e+30,116776.2443847421,1.2342617612225663e+19,0.0
590,1.9884285823125832e+30,116755.52592228637,2.0901515852504044e+19,0.0
591,1.9884285825221362e+30,116786.73761229044,8.997946004699514e+18,0.0
592,1.9884285824390884e+30,116772.44179996004,1.3713921379266945e+19,0.0
593,1.988428582412265e+30,116768.4758204185,1.5237576630787064e+19,0.0
594,1.9884285826192597e+30,116811.32233376712,3.486149979487558e+18,0.0
595,1.9884285825650924e+30,116795.98629692858,6.559616851174271e+18,0.0
596,1.988428582504528e+30,116783.3859778064,9.997654695632339e+18,0.0
597,1.9884285825522515e+30,116793.03220435049,7.288422634730975e+18,0.0
598,1.988428582635916e+30,116817.65432205178,2.5414336249102387e+18,0.0
599,1.9884285824632328e+30,116776.2443847421,1.2342617612225663e+19,0.0
600,1.9884285826651106e+30,116833.8150305896,8.861700652360471e+17,0.0
601,1.9884285824849658e+30,116779.89029560085,1.1108432106048289e+19,0.0
602,1.9884285823824658e+30,116764.33943801744,1.6930508831075381e+19,0.0
603,1.9884285823125832e+30,116755.52592228637,2.0901515852504044e+19,0.0
604,1.9884285825221362e+30,116786.73761229044,8.997946004699514e+18,0.0
605,1.9884285825522515e+30,116793.03220435049,7.288422634730975e+18,0.0
606,1.9884285825221362e+30,116786.73761229044,8.997946004699514e+18,0.0
607,1.988428582412265e+30,116768.4758204185,1.5237576630787064e+19,0.0
608,1.9884285826542699e+30,116826.58228896909,1.500716358630722e+18,0.0
609,1.9884285825766503e+30,116798.81863123877,5.903686644176067e+18,0.0
610,1.9884285825221362e+30,116786.73761229044,8.997946004699514e+18,0.0
611,1.988428582057676e+30,116729.95860288847,3.539519620535944e+19,0.0
612,1.9884285824849658e+30,116779.89029560085,1.1108432106048289e+19,0.0
613,1.988428582630937e+30,116815.63187947698,2.8238043893707986e+18,0.0
614,1.9884285825379855e+30,116789.95112642221,8.09820039812057e+18,0.0
615,1.9884285823493607e+30,116760.02534520596,1.881152365788231e+19,0.0
616,1.9884285825221362e+30,116786.73761229044,8.997946004699514e+18,0.0
617,1.9884285822263378e+30,116745.93896669456,2.580387467379838e+19,0.0
618,1.9884285825766503e+30,116798.81863123877,5.903686644176067e+18,0.0
619,1.9884285823125832e+30,116755.52592228637,2.0901515852504044e+19,0.0
620,1.9884285825221362e+30,116786.73761229044,8.997946004699514e+18,0.0
621,1.9884285825221362e+30,116786.73761229044,8.997946004699514e+18,0.0
622,1.9884285826048457e+30,116806.63418818182,4.3038508830405745e+18,0.0
623,1.988428582504528e+30,116783.3859778064,9.997654695632339e+18,0.0
624,1.988428582412265e+30,116768.4758204185,1.5237576630787064e+19,0.0
625,1.9884285823824658e+30,116764.33943801744,1.6930508831075381e+19,0.0
626,1.9884285825379855e+30,116789.95112642221,8.09820039812057e+18,0.0
627,1.9884285826048457e+30,116806.63418818182,4.3038508830405745e+18,0.0
628,1.9884285821199014e+30,116735.51085420777,3.1856009728541114e+19,0.0
629,1.9884285826633736e+30,116832.48769796746,9.846309461973074e+17,0.0
630,1.9884285824390884e+30,116772.44179996004,1.3713921379266945e+19,0.0
631,1.988428582412265e+30,116768.4758204185,1.5237576630787064e+19,0.0
632,1.9884285826048457e+30,116806.63418818182,4.3038508830405745e+18,0.0
633,1.9884285824390884e+30,116772.44179996004,1.3713921379266945e+19,0.0
634,1.9884285823125832e+30,116755.52592228637,2.0901515852504044e+19,0.0
635,1.9884285826724374e+30,116840.70517073412,4.7095321228353114e+17,0.0
636,1.9884285826746897e+30,116843.54967595031,3.433267295427292e+17,0.0
637,1.9884285825650924e+30,116795.98629692858,6.559616851174271e+18,0.0
638,1.9884285825221362e+30,116786.73761229044,8.997946004699514e+18,0.0
639,1.9884285824849658e+30,116779.89029560085,1.1108432106048289e+19,0.0
640,1.988428582504528e+30,116783.3859778064,9.997654695632339e+18,0.0
641,1.9884285825650924e+30,116795.98629692858,6.559616851174271e+18,0.0
642,1.9884285824390884e+30,116772.44179996004,1.3713921379266945e+19,0.0
643,1.9884285823824658e+30,116764.33943801744,1.6930508831075381e+19,0.0
644,1.9884285824632328e+30,116776.2443847421,1.2342617612225663e+19,0.0
645,1.9884285825379855e+30,116789.95112642221,8.09820039812057e+18,0.0
646,1.9884285826254054e+30,116813.52246227518,3.137547975032636e+18,0.0
647,1.9884285824849658e+30,116779.89029560085,1.1108432106048289e+19,0.0
648,1.9884285823493607e+30,116760.02534520596,1.881152365788231e+19,0.0
649,1.9884285825522515e+30,116793.03220435049,7.288422634730975e+18,0.0
650,1.988428582630937e+30,116815.63187947698,2.8238043893707986e+18,0.0
651,1.9884285826254054e+30,116813.52246227518,3.137547975032636e+18,0.0
652,1.9884285825379855e+30,116789.95112642221,8.09820039812057e+18,0.0
653,1.9884285826614435e+30,116831.10326542977,1.0940315341615656e+18,0.0
654,1.9884285821199014e+30,116735.51085420777,3.1856009728541114e+19,0.0
655,1.9884285823125832e+30,116755.52592228637,2.0901515852504044e+19,0.0
656,1.9884285826633736e+30,116832.48769796746,9.846309461973074e+17,0.0
657,1.9884285825379855e+30,116789.95112642221,8.09820039812057e+18,0.0
658,1.9884285824390884e+30,116772.44179996004,1.3713921379266945e+19,0.0
659,1.9884285825522515e+30,116793.03220435049,7.288422634730975e+18,0.0
660,1.9884285823493607e+30,116760.02534520596,1.881152365788231e+19,0.0
661,1.9884285825522515e+30,116793.03220435049,7.288422634730975e+18,0.0
662,1.9884285826403974e+30,116819.59337302404,2.2872986103251878e+18,0.0
663,1.9884285822717262e+30,116750.83322418875,2.3223701265505427e+19,0.0
664,1.9884285825379855e+30,116789.95112642221,8.09820039812057e+18,0.0
665,1.9884285824390884e+30,116772.44179996004,1.3713921379266945e+19,0.0
666,1.9884285826048457e+30,116806.63418818182,4.3038508830405745e+18,0.0
667,1.9884285825964175e+30,116804.13786899838,4.782034065454195e+18,0.0
668,1.9884285825650924e+30,116795.98629692858,6.559616851174271e+18,0.0
669,1.988428582504528e+30,116783.3859778064,9.997654695632339e+18,0.0
670,1.9884285823125832e+30,116755.52592228637,2.0901515852504044e+19,0.0
671,1.988428582504528e+30,116783.3859778064,9.997654695632339e+18,0.0
672,1.9884285823493607e+30,116760.02534520596,1.881152365788231e+19,0.0
673,1.9884285825870536e+30,116801.53421973207,5.313345141842041e+18,0.0
674,1.988428582630937e+30,116815.63187947698,2.8238043893707986e+18,0.0
675,1.9884285825964175e+30,116804.13786899838,4.782034065454195e+18,0.0
676,1.9884285822263378e+30,116745.93896669456,2.580387467379838e+19,0.0
677,1.9884285824632328e+30,116776.2443847421,1.2342617612225663e+19,0.0
678,1.9884285825221362e+30,116786.73761229044,8.997946004699514e+18,0.0
679,1.988428582504528e+30,116783.3859778064,9.997654695632339e+18,0.0
680,1.9884285826569168e+30,116828.1531760672,1.3506487159738045e+18,0.0
681,1.9884285826048457e+30,116806.63418818182,4.3038508830405745e+18,0.0
682,1.9884285824632328e+30,116776.2443847421,1.2342617612225663e+19,0.0
683,1.9884285826124317e+30,116809.02759705517,3.87348324582162e+18,0.0
684,1.9884285825522515e+30,116793.03220435049,7.288422634730975e+18,0.0
685,1.9884285826192597e+30,116811.32233376712,3.486149979487558e+18,0.0
686,1.9884285826048457e+30,116806.63418818182,4.3038508830405745e+18,0.0
687,1.9884285821199014e+30,116735.51085420777,3.1856009728541114e+19,0.0
688,1.9884285823493607e+30,116760.02534520596,1.881152365788231e+19,0.0
689,1.9884285825870536e+30,116801.53421973207,5.313345141842041e+18,0.0
690,1.9884285823824658e+30,116764.33943801744,1.6930508831075381e+19,0.0
691,1.988428582057676e+30,116729.95860288847,3.539519620535944e+19,0.0
692,1.9884285826124317e+30,116809.02759705517,3.87348324582162e+18,0.0
693,1.9884285824849658e+30,116779.89029560085,1.1108432106048289e+19,0.0
694,1.9884285825379855e+30,116789.95112642221,8.09820039812057e+18,0.0
695,1.9884285826048457e+30,116806.63418818182,4.3038508830405745e+18,0.0
696,1.988428582669348e+30,116837.47748555496,6.460224302607286e+17,0.0
697,1.9884285823125832e+30,116755.52592228637,2.0901515852504044e+19,0.0
698,1.9884285825379855e+30,116789.95112642221,8.09820039812057e+18,0.0
699,1.9884285824390884e+30,116772.44179996004,1.3713921379266945e+19,0.0
700,1.988428582504528e+30,116783.3859778064,9.997654695632339e+18,0.0
701,1.988428582504528e+30,116783.3859778064,9.997654695632339e+18,0.0
702,1.988428582504528e+30,116783.3859778064,9.997654695632339e+18,0.0
703,1.9884285823824658e+30,116764.33943801744,1.6930508831075381e+19,0.0
704,1.988428582412265e+30,116768.4758204185,1.5237576630787064e+19,0.0
705,1.9884285822263378e+30,116745.93896669456,2.580387467379838e+19,0.0
706,1.9884285826480614e+30,116823.23490150733,1.8527245727738004e+18,0.0
707,1.9884285824390884e+30,116772.44179996004,1.3713921379266945e+19,0.0
708,1.9884285825766503e+30,116798.81863123877,5.903686644176067e+18,0.0
709,1.988428582651329e+30,116824.9438321908,1.6674574787116713e+18,0.0
710,1.9884285826124317e+30,116809.02759705517,3.87348324582162e+18,0.0
711,1.9884285824632328e+30,116776.2443847421,1.2342617612225663e+19,0.0
712,1.9884285824632328e+30,116776.2443847421,1.2342617612225663e+19,0.0
713,1.9884285825522515e+30,116793.03220435049,7.288422634730975e+18,0.0
714,1.9884285826666742e+30,116835.08761701506,7.975549688166473e+17,0.0
715,1.9884285826651106e+30,116833.8150305896,8.861700652360471e+17,0.0
716,1.9884285823824658e+30,116764.33943801744,1.6930508831075381e+19,0.0
717,1.988428582412265e+30,116768.4758204185,1.5237576630787064e+19,0.0
718,1.988428582630937e+30,116815.63187947698,2.8238043893707986e+18,0.0
719,1.9884285823125832e+30,116755.52592228637,2.0901515852504044e+19,0.0
720,1.9884285825522515e+30,116793.03220435049,7.288422634730975e+18,0.0
721,1.9884285824390884e+30,116772.44179996004,1.3713921379266945e+19,0.0
722,1.988428582635916e+30,116817.65432205178,2.5414336249102387e+18,0.0
723,1.9884285822263378e+30,116745.93896669456,2.580387467379838e+19,0.0
724,1.9884285826048457e+30,116806.63418818182,4.3038508830405745e+18,0.0
725,1.9884285825766503e+30,116798.81863123877,5.903686644176067e+18,0.0
726,1.988428582504528e+30,116783.3859778064,9.997654695632339e+18,0.0
727,1.988428582635916e+30,116817.65432205178,2.5414336249102387e+18,0.0
728,1.9884285825379855e+30,116789.95112642221,8.09820039812057e+18,0.0
729,1.9884285825766503e+30,116798.81863123877,5.903686644176067e+18,0.0
730,1.9884285826192597e+30,116811.32233376712,3.486149979487558e+18,0.0
731,1.9884285826192597e+30,116811.32233376712,3.486149979487558e+18,0.0
732,1.9884285824849658e+30,116779.89029560085,1.1108432106048289e+19,0.0
733,1.9884285825379855e+30,116789.95112642221,8.09820039812057e+18,0.0
734,1.9884285825650924e+30,116795.98629692858,6.559616851174271e+18,0.0
735,1.9884285822263378e+30,116745.93896669456,2.580387467379838e+19,0.0
736,1.9884285826480614e+30,116823.23490150733,1.8527245727738004e+18,0.0
737,1.9884285825964175e+30,116804.13786899838,4.782034065454195e+18,0.0
738,1.9884285826254054e+30,116813.52246227518,3.137547975032636e+18,0.0
739,1.9884285823125832e+30,116755.52592228637,2.0901515852504044e+19,0.0
740,1.9884285822717262e+30,116750.83322418875,2.3223701265505427e+19,0.0
741,1.9884285825221362e+30,116786.73761229044,8.997946004699514e+18,0.0
742,1.9884285825964175e+30,116804.13786899838,4.782034065454195e+18,0.0
743,1.9884285821759155e+30,116740.83451208739,2.867069623073429e+19,0.0
744,1.9884285825379855e+30,116789.95112642221,8.09820039812057e+18,0.0
745,1.9884285825650924e+30,116795.98629692858,6.559616851174271e+18,0.0
746,1.988428582669348e+30,116837.47748555496,6.460224302607286e+17,0.0
747,1.988428582504528e+30,116783.3859778064,9.997654695632339e+18,0.0
748,1.9884285823824658e+30,116764.33943801744,1.6930508831075381e+19,0.0
749,1.9884285823824658e+30,116764.33943801744,1.6930508831075381e+19,0.0
750,1.9884285824390884e+30,116772.44179996004,1.3713921379266945e+19,0.0
751,1.988428582630937e+30,116815.63187947698,2.8238043893707986e+18,0.0
752,1.9884285823125832e+30,116755.52592228637,2.0901515852504044e+19,0.0
753,1.9884285825650924e+30,116795.98629692858,6.559616851174271e+18,0.0
754,1.9884285824632328e+30,116776.2443847421,1.2342617612225663e+19,0.0
755,1.9884285823493607e+30,116760.02534520596,1.881152365788231e+19,0.0
756,1.9884285825870536e+30,116801.53421973207,5.313345141842041e+18,0.0
757,1.9884285822717262e+30,116750.83322418875,2.3223701265505427e+19,0.0
758,1.988428582644431e+30,116821.45246805986,2.058575952521091e+18,0.0
759,1.9884285825650924e+30,116795.98629692858,6.559616851174271e+18,0.0
760,1.9884285823493607e+30,116760.02534520596,1.881152365788231e+19,0.0
761,1.9884285825870536e+30,116801.53421973207,5.313345141842041e+18,0.0
762,1.9884285824390884e+30,116772.44179996004,1.3713921379266945e+19,0.0
763,1.9884285818264612e+30,116711.83028140054,4.855142322129271e+19,0.0
764,1.9884285825650924e+30,116795.98629692858,6.559616851174271e+18,0.0
765,1.9884285823493607e+30,116760.02534520596,1.881152365788231e+19,0.0
766,1.9884285823824658e+30,116764.33943801744,1.6930508831075381e+19,0.0
767,1.9884285826254054e+30,116813.52246227518,3.137547975032636e+18,0.0
768,1.988428582412265e+30,116768.4758204185,1.5237576630787064e+19,0.0
769,1.9884285824390884e+30,116772.44179996004,1.3713921379266945e+19,0.0
770,1.9884285824390884e+30,116772.44179996004,1.3713921379266945e+19,0.0
771,1.9884285824849658e+30,116779.89029560085,1.1108432106048289e+19,0.0
772,1.9884285823493607e+30,116760.02534520596,1.881152365788231e+19,0.0
773,1.9884285826746897e+30,116843.54967595031,3.433267295427292e+17,0.0
774,1.9884285823824658e+30,116764.33943801744,1.6930508831075381e+19,0.0
775,1.9884285825650924e+30,116795.98629692858,6.559616851174271e+18,0.0
776,1.9884285823824658e+30,116764.33943801744,1.6930508831075381e+19,0.0
777,1.9884285825650924e+30,116795.98629692858,6.559616851174271e+18,0.0
778,1.9884285824390884e+30,116772.44179996004,1.3713921379266945e+19,0.0
779,1.9884285825522515e+30,116793.03220435049,7.288422634730975e+18,0.0
780,1.9884285825379855e+30,116789.95112642221,8.09820039812057e+18,0.0
781,1.9884285822717262e+30,116750.83322418875,2.3223701265505427e+19,0.0
782,1.9884285825221362e+30,116786.73761229044,8.997946004699514e+18,0.0
783,1.9884285824632328e+30,116776.2443847421,1.2342617612225663e+19,0.0
784,1.988428582635916e+30,116817.65432205178,2.5414336249102387e+18,0.0
785,1.9884285821759155e+30,116740.83451208739,2.867069623073429e+19,0.0
786,1.9884285825221362e+30,116786.73761229044,8.997946004699514e+18,0.0
787,1.988428582057676e+30,116729.95860288847,3.539519620535944e+19,0.0
788,1.9884285826614435e+30,116831.10326542977,1.0940315341615656e+18,0.0
789,1.9884285823824658e+30,116764.33943801744,1.6930508831075381e+19,0.0
790,1.9884285824632328e+30,116776.2443847421,1.2342617612225663e+19,0.0
791,1.9884285824390884e+30,116772.44179996004,1.3713921379266945e+19,0.0
792,1.988428582635916e+30,116817.65432205178,2.5414336249102387e+18,0.0
793,1.9884285825870536e+30,116801.53421973207,5.313345141842041e+18,0.0
794,1.9884285823493607e+30,116760.02534520596,1.881152365788231e+19,0.0
795,1.9884285823125832e+30,116755.52592228637,2.0901515852504044e+19,0.0
796,1.9884285825221362e+30,116786.73761229044,8.997946004699514e+18,0.0
797,1.9884285821199014e+30,116735.51085420777,3.1856009728541114e+19,0.0
798,1.988428582504528e+30,116783.3859778064,9.997654695632339e+18,0.0
799,1.9884285826680813e+30,116836.30771404703,7.178011201095862e+17,0.0
800,1.9884285826542699e+30,116826.58228896909,1.500716358630722e+18,0.0
801,1.9884285824849658e+30,116779.89029560085,1.1108432106048289e+19,0.0
802,1.9884285826480614e+30,116823.23490150733,1.8527245727738004e+18,0.0
803,1.9884285826403974e+30,116819.59337302404,2.2872986103251878e+18,0.0
804,1.988428582504528e+30,116783.3859778064,9.997654695632339e+18,0.0
805,1.9884285824632328e+30,116776.2443847421,1.2342617612225663e+19,0.0
806,1.988428582504528e+30,116783.3859778064,9.997654695632339e+18,0.0
807,1.9884285822263378e+30,116745.93896669456,2.580387467379838e+19,0.0
808,1.9884285826192597e+30,116811.32233376712,3.486149979487558e+18,0.0
809,1.9884285825221362e+30,116786.73761229044,8.997946004699514e+18,0.0
810,1.9884285825221362e+30,116786.73761229044,8.997946004699514e+18,0.0
811,1.9884285825379855e+30,116789.95112642221,8.09820039812057e+18,0.0
812,1.9884285826746897e+30,116843.54967595031,3.433267295427292e+17,0.0
813,1.9884285826480614e+30,116823.23490150733,1.8527245727738004e+18,0.0
814,1.9884285826254054e+30,116813.52246227518,3.137547975032636e+18,0.0
815,1.9884285825522515e+30,116793.03220435049,7.288422634730975e+18,0.0
816,1.9884285822263378e+30,116745.93896669456,2.580387467379838e+19,0.0
817,1.9884285824632328e+30,116776.2443847421,1.2342617612225663e+19,0.0
818,1.9884285823824658e+30,116764.33943801744,1.6930508831075381e+19,0.0
819,1.9884285826403974e+30,116819.59337302404,2.2872986103251878e+18,0.0
820,1.9884285825766503e+30,116798.81863123877,5.903686644176067e+18,0.0
821,1.9884285824390884e+30,116772.44179996004,1.3713921379266945e+19,0.0
822,1.988428582412265e+30,116768.4758204185,1.5237576630787064e+19,0.0
823,1.9884285825522515e+30,116793.03220435049,7.288422634730975e+18,0.0
824,1.9884285825766503e+30,116798.81863123877,5.903686644176067e+18,0.0
825,1.9884285824849658e+30,116779.89029560085,1.1108432106048289e+19,0.0
826,1.9884285825379855e+30,116789.95112642221,8.09820039812057e+18,0.0
827,1.9884285824632328e+30,116776.2443847421,1.2342617612225663e+19,0.0
828,1.9884285824390884e+30,116772.44179996004,1.3713921379266945e+19,0.0
829,1.9884285823824658e+30,116764.33943801744,1.6930508831075381e+19,0.0
830,1.9884285823824658e+30,116764.33943801744,1.6930508831075381e+19,0.0
831,1.9884285823493607e+30,116760.02534520596,1.881152365788231e+19,0.0
832,1.9884285825650924e+30,116795.98629692858,6.559616851174271e+18,0.0
833,1.9884285824632328e+30,116776.2443847421,1.2342617612225663e+19,0.0
834,1.9884285826192597e+30,116811.32233376712,3.486149979487558e+18,0.0
835,1.988428582504528e+30,116783.3859778064,9.997654695632339e+18,0.0
836,1.9884285825870536e+30,116801.53421973207,5.313345141842041e+18,0.0
837,1.988428582651329e+30,116824.9438321908,1.6674574787116713e+18,0.0
838,1.988428582504528e+30,116783.3859778064,9.997654695632339e+18,0.0
839,1.9884285823125832e+30,116755.52592228637,2.0901515852504044e+19,0.0
840,1.9884285825766503e+30,116798.81863123877,5.903686644176067e+18,0.0
841,1.988428582412265e+30,116768.4758204185,1.5237576630787064e+19,0.0
842,1.9884285823824658e+30,116764.33943801744,1.6930508831075381e+19,0.0
843,1.9884285826403974e+30,116819.59337302404,2.2872986103251878e+18,0.0
844,1.9884285824632328e+30,116776.2443847421,1.2342617612225663e+19,0.0
845,1.988428582412265e+30,116768.4758204185,1.5237576630787064e+19,0.0
846,1.9884285825650924e+30,116795.98629692858,6.559616851174271e+18,0.0
847,1.9884285825766503e+30,116798.81863123877,5.903686644176067e+18,0.0
848,1.9884285823824658e+30,116764.33943801744,1.6930508831075381e+19,0.0
849,1.9884285823493607e+30,116760.02534520596,1.881152365788231e+19,0.0
850,1.9884285822263378e+30,116745.93896669456,2.580387467379838e+19,0.0
851,1.9884285826124317e+30,116809.02759705517,3.87348324582162e+18,0.0
852,1.9884285824390884e+30,116772.44179996004,1.3713921379266945e+19,0.0
853,1.9884285826592993e+30,116829.65927819039,1.2155872900128264e+18,0.0
854,1.9884285824632328e+30,116776.2443847421,1.2342617612225663e+19,0.0
855,1.9884285825522515e+30,116793.03220435049,7.288422634730975e+18,0.0
856,1.9884285826480614e+30,116823.23490150733,1.8527245727738004e+18,0.0
857,1.9884285826124317e+30,116809.02759705517,3.87348324582162e+18,0.0
858,1.9884285821759155e+30,116740.83451208739,2.867069623073429e+19,0.0
859,1.9884285825964175e+30,116804.13786899838,4.782034065454195e+18,0.0
860,1.9884285826740165e+30,116842.64115859361,3.8147349174246125e+17,0.0
861,1.988428582057676e+30,116729.95860288847,3.539519620535944e+19,0.0
862,1.9884285826403974e+30,116819.59337302404,2.2872986103251878e+18,0.0
863,1.9884285824632328e+30,116776.2443847421,1.2342617612225663e+19,0.0
864,1.9884285824632328e+30,116776.2443847421,1.2342617612225663e+19,0.0
865,1.988428582644431e+30,116821.45246805986,2.058575952521091e+18,0.0
866,1.9884285823824658e+30,116764.33943801744,1.6930508831075381e+19,0.0
867,1.9884285826254054e+30,116813.52246227518,3.137547975032636e+18,0.0
868,1.9884285822263378e+30,116745.93896669456,2.580387467379838e+19,0.0
869,1.988428582412265e+30,116768.4758204185,1.5237576630787064e+19,0.0
870,1.988428582651329e+30,116824.9438321908,1.6674574787116713e+18,0.0
871,1.988428582412265e+30,116768.4758204185,1.5237576630787064e+19,0.0
872,1.988428582412265e+30,116768.4758204185,1.5237576630787064e+19,0.0
873,1.9884285823824658e+30,116764.33943801744,1.6930508831075381e+19,0.0
874,1.9884285826048457e+30,116806.63418818182,4.3038508830405745e+18,0.0
875,1.9884285824849658e+30,116779.89029560085,1.1108432106048289e+19,0.0
876,1.9884285823824658e+30,116764.33943801744,1.6930508831075381e+19,0.0
877,1.988428582504528e+30,116783.3859778064,9.997654695632339e+18,0.0
878,1.988428582630937e+30,116815.63187947698,2.8238043893707986e+18,0.0
879,1.9884285821759155e+30,116740.83451208739,2.867069623073429e+19,0.0
880,1.988428582504528e+30,116783.3859778064,9.997654695632339e+18,0.0
881,1.9884285825964175e+30,116804.13786899838,4.782034065454195e+18,0.0
882,1.9884285826124317e+30,116809.02759705517,3.87348324582162e+18,0.0
883,1.9884285826480614e+30,116823.23490150733,1.8527245727738004e+18,0.0
884,1.988428582675841e+30,116845.25582008137,2.7809554378915888e+17,0.0
885,1.988428582412265e+30,116768.4758204185,1.5237576630787064e+19,0.0
886,1.9884285826651106e+30,116833.8150305896,8.861700652360471e+17,0.0
887,1.9884285821759155e+30,116740.83451208739,2.867069623073429e+19,0.0
888,1.9884285823824658e+30,116764.33943801744,1.6930508831075381e+19,0.0
889,1.9884285822717262e+30,116750.83322418875,2.3223701265505427e+19,0.0
890,1.9884285822717262e+30,116750.83322418875,2.3223701265505427e+19,0.0
891,1.9884285826680813e+30,116836.30771404703,7.178011201095862e+17,0.0
892,1.9884285824390884e+30,116772.44179996004,1.3713921379266945e+19,0.0
893,1.9884285824632328e+30,116776.2443847421,1.2342617612225663e+19,0.0
894,1.9884285826048457e+30,116806.63418818182,4.3038508830405745e+18,0.0
895,1.9884285825221362e+30,116786.73761229044,8.997946004699514e+18,0.0
896,1.9884285825650924e+30,116795.98629692858,6.559616851174271e+18,0.0
897,1.9884285825650924e+30,116795.98629692858,6.559616851174271e+18,0.0
898,1.9884285822717262e+30,116750.83322418875,2.3223701265505427e+19,0.0
899,1.9884285826592993e+30,116829.65927819039,1.2155872900128264e+18,0.0
900,1.9884285822717262e+30,116750.83322418875,2.3223701265505427e+19,0.0
901,1.9884285825221362e+30,116786.73761229044,8.997946004699514e+18,0.0
902,1.988428582630937e+30,116815.63187947698,2.8238043893707986e+18,0.0
903,1.9884285825870536e+30,116801.53421973207,5.313345141842041e+18,0.0
904,1.988428582412265e+30,116768.4758204185,1.5237576630787064e+19,0.0
905,1.9884285826124317e+30,116809.02759705517,3.87348324582162e+18,0.0
906,1.9884285824849658e+30,116779.89029560085,1.1108432106048289e+19,0.0
907,1.988428582412265e+30,116768.4758204185,1.5237576630787064e+19,0.0
908,1.9884285825964175e+30,116804.13786899838,4.782034065454195e+18,0.0
909,1.9884285824390884e+30,116772.44179996004,1.3713921379266945e+19,0.0
910,1.9884285825650924e+30,116795.98629692858,6.559616851174271e+18,0.0
911,1.988428582504528e+30,116783.3859778064,9.997654695632339e+18,0.0
912,1.9884285825379855e+30,116789.95112642221,8.09820039812057e+18,0.0
913,1.9884285822717262e+30,116750.83322418875,2.3223701265505427e+19,0.0
914,1.9884285825964175e+30,116804.13786899838,4.782034065454195e+18,0.0
915,1.9884285824632328e+30,116776.2443847421,1.2342617612225663e+19,0.0
916,1.9884285826254054e+30,116813.52246227518,3.137547975032636e+18,0.0
917,1.9884285826480614e+30,116823.23490150733,1.8527245727738004e+18,0.0
918,1.9884285819117625e+30,116718.12874129941,4.369679936285761e+19,0.0
919,1.9884285824849658e+30,116779.89029560085,1.1108432106048289e+19,0.0
920,1.988428581988551e+30,116724.1679677455,3.932756682121565e+19,0.0
921,1.9884285825870536e+30,116801.53421973207,5.313345141842041e+18,0.0
922,1.9884285825522515e+30,116793.03220435049,7.288422634730975e+18,0.0
923,1.9884285825522515e+30,116793.03220435049,7.288422634730975e+18,0.0
924,1.9884285823824658e+30,116764.33943801744,1.6930508831075381e+19,0.0
925,1.9884285824632328e+30,116776.2443847421,1.2342617612225663e+19,0.0
926,1.9884285825650924e+30,116795.98629692858,6.559616851174271e+18,0.0
927,1.9884285826124317e+30,116809.02759705517,3.87348324582162e+18,0.0
928,1.9884285825221362e+30,116786.73761229044,8.997946004699514e+18,0.0
929,1.9884285826480614e+30,116823.23490150733,1.8527245727738004e+18,0.0
930,1.9884285821199014e+30,116735.51085420777,3.1856009728541114e+19,0.0
931,1.9884285825522515e+30,116793.03220435049,7.288422634730975e+18,0.0
932,1.988428582644431e+30,116821.45246805986,2.058575952521091e+18,0.0
933,1.9884285825379855e+30,116789.95112642221,8.09820039812057e+18,0.0
934,1.9884285825766503e+30,116798.81863123877,5.903686644176067e+18,0.0
935,1.9884285826480614e+30,116823.23490150733,1.8527245727738004e+18,0.0
936,1.9884285825964175e+30,116804.13786899838,4.782034065454195e+18,0.0
937,1.9884285826192597e+30,116811.32233376712,3.486149979487558e+18,0.0
938,1.9884285823824658e+30,116764.33943801744,1.6930508831075381e+19,0.0
939,1.9884285825522515e+30,116793.03220435049,7.288422634730975e+18,0.0
940,1.9884285825766503e+30,116798.81863123877,5.903686644176067e+18,0.0
941,1.988428582412265e+30,116768.4758204185,1.5237576630787064e+19,0.0
942,1.9884285826048457e+30,116806.63418818182,4.3038508830405745e+18,0.0
943,1.9884285825964175e+30,116804.13786899838,4.782034065454195e+18,0.0
944,1.9884285824390884e+30,116772.44179996004,1.3713921379266945e+19,0.0
945,1.9884285825221362e+30,116786.73761229044,8.997946004699514e+18,0.0
946,1.9884285825766503e+30,116798.81863123877,5.903686644176067e+18,0.0
947,1.988428582504528e+30,116783.3859778064,9.997654695632339e+18,0.0
948,1.9884285823824658e+30,116764.33943801744,1.6930508831075381e+19,0.0
949,1.9884285823824658e+30,116764.33943801744,1.6930508831075381e+19,0.0
950,1.9884285825650924e+30,116795.98629692858,6.559616851174271e+18,0.0
951,1.9884285822263378e+30,116745.93896669456,2.580387467379838e+19,0.0
952,1.9884285826192597e+30,116811.32233376712,3.486149979487558e+18,0.0
953,1.9884285823824658e+30,116764.33943801744,1.6930508831075381e+19,0.0
954,1.988428582504528e+30,116783.3859778064,9.997654695632339e+18,0.0
955,1.9884285822717262e+30,116750.83322418875,2.3223701265505427e+19,0.0
956,1.988428582630937e+30,116815.63187947698,2.8238043893707986e+18,0.0
957,1.9884285821199014e+30,116735.51085420777,3.1856009728541114e+19,0.0
958,1.988428582412265e+30,116768.4758204185,1.5237576630787064e+19,0.0
959,1.988428582412265e+30,116768.4758204185,1.5237576630787064e+19,0.0
960,1.9884285825766503e+30,116798.81863123877,5.903686644176067e+18,0.0
961,1.9884285825522515e+30,116793.03220435049,7.288422634730975e+18,0.0
962,1.988428582504528e+30,116783.3859778064,9.997654695632339e+18,0.0
963,1.9884285823824658e+30,116764.33943801744,1.6930508831075381e+19,0.0
964,1.9884285824390884e+30,116772.44179996004,1.3713921379266945e+19,0.0
965,1.9884285824390884e+30,116772.44179996004,1.3713921379266945e+19,0.0
966,1.9884285825221362e+30,116786.73761229044,8.997946004699514e+18,0.0
967,1.9884285822263378e+30,116745.93896669456,2.580387467379838e+19,0.0
968,1.9884285824632328e+30,116776.2443847421,1.2342617612225663e+19,0.0
969,1.9884285825964175e+30,116804.13786899838,4.782034065454195e+18,0.0
970,1.988428582644431e+30,116821.45246805986,2.058575952521091e+18,0.0
971,1.9884285823493607e+30,116760.02534520596,1.881152365788231e+19,0.0
972,1.9884285823824658e+30,116764.33943801744,1.6930508831075381e+19,0.0
973,1.9884285825522515e+30,116793.03220435049,7.288422634730975e+18,0.0
974,1.9884285823824658e+30,116764.33943801744,1.6930508831075381e+19,0.0
975,1.9884285826480614e+30,116823.23490150733,1.8527245727738004e+18,0.0
976,1.9884285826254054e+30,116813.52246227518,3.137547975032636e+18,0.0
977,1.9884285826752958e+30,116844.42071460526,3.0899456306985645e+17,0.0
978,1.9884285825766503e+30,116798.81863123877,5.903686644176067e+18,0.0
979,1.9884285825379855e+30,116789.95112642221,8.09820039812057e+18,0.0
980,1.9884285823125832e+30,116755.52592228637,2.0901515852504044e+19,0.0
981,1.9884285823824658e+30,116764.33943801744,1.6930508831075381e+19,0.0
982,1.9884285824632328e+30,116776.2443847421,1.2342617612225663e+19,0.0
983,1.988428582630937e+30,116815.63187947698,2.8238043893707986e+18,0.0
984,1.9884285822263378e+30,116745.93896669456,2.580387467379838e+19,0.0
985,1.988428582412265e+30,116768.4758204185,1.5237576630787064e+19,0.0
986,1.988428582671514e+30,116839.67426556551,5.2328033180251034e+17,0.0
987,1.9884285826592993e+30,116829.65927819039,1.2155872900128264e+18,0.0
988,1.9884285825221362e+30,116786.73761229044,8.997946004699514e+18,0.0
989,1.9884285824390884e+30,116772.44179996004,1.3713921379266945e+19,0.0
990,1.9884285825650924e+30,116795.98629692858,6.559616851174271e+18,0.0
991,1.9884285825870536e+30,116801.53421973207,5.313345141842041e+18,0.0
992,1.9884285823125832e+30,116755.52592228637,2.0901515852504044e+19,0.0
993,1.9884285821759155e+30,116740.83451208739,2.867069623073429e+19,0.0
994,1.9884285825221362e+30,116786.73761229044,8.997946004699514e+18,0.0
995,1.988428582057676e+30,116729.95860288847,3.539519620535944e+19,0.0
996,1.9884285825221362e+30,116786.73761229044,8.997946004699514e+18,0.0
997,1.9884285822263378e+30,116745.93896669456,2.580387467379838e+19,0.0
998,1.988428582644431e+30,116821.45246805986,2.058575952521091e+18,0.0
999,1.9884285824390884e+30,116772.44179996004,1.3713921379266945e+19,0.0
