,0,1,2,3
0,6.017725586833615e+30,6137706.052983497,31453881041223.15,0.0
1,6.017725587212098e+30,6137761.48803615,22929924815752.285,0.0
2,6.01772558422508e+30,6137461.411760495,90208059219299.52,0.0
3,6.017725579857372e+30,6137217.333007683,188600993246168.4,0.0
4,6.017725582736424e+30,6137365.543664688,123741768718460.45,0.0
5,6.017725584625552e+30,6137490.767931621,81187338681892.75,0.0
6,6.01772557674553e+30,6137088.580717761,258710731500500.38,0.0
7,6.017725587971486e+30,6137934.99989705,5828515462264.853,0.0
8,6.017725585602341e+30,6137571.7670425875,59185741644378.83,0.0
9,6.017725587791988e+30,6137879.212264598,9870622388289.73,0.0
10,6.017725583285732e+30,6137398.855145817,111367724754507.0,0.0
11,6.017725586314457e+30,6137643.148102793,43146515993247.2,0.0
12,6.017725582126096e+30,6137330.798713967,137490682986244.4,0.0
13,6.017725584625552e+30,6137490.767931621,81187338681892.75,0.0
14,6.017725587743286e+30,6137866.573617738,10967353243650.383,0.0
15,6.017725581447971e+30,6137294.558626978,152767227194962.94,0.0
16,6.017725584985984e+30,6137518.912904927,73068678488964.23,0.0
17,6.01772558667844e+30,6137685.961763726,34948731557995.92,0.0
18,6.017725584985984e+30,6137518.912904927,73068678488964.23,0.0
19,6.017725582126096e+30,6137330.798713967,137490682986244.4,0.0
20,6.017725583285732e+30,6137398.855145817,111367724754507.0,0.0
21,6.017725583285732e+30,6137398.855145817,111367724754507.0,0.0
22,6.017725586506026e+30,6137665.005872252,38831894800977.26,0.0
23,6.017725582126096e+30,6137330.798713967,137490682986244.4,0.0
24,6.017725584985984e+30,6137518.912904927,73068678488964.23,0.0
25,6.017725580694519e+30,6137256.75908585,169741133681953.97,0.0
26,6.017725587875268e+30,6137902.946502657,7995210932333.708,0.0
27,6.017725586506026e+30,6137665.005872252,38831894800977.26,0.0
28,6.017725582736424e+30,6137365.543664688,123741768718460.45,0.0
29,6.017725586506026e+30,6137665.005872252,38831894800977.26,0.0
30,6.01772558422508e+30,6137461.411760495,90208059219299.52,0.0
31,6.017725586506026e+30,6137665.005872252,38831894800977.26,0.0
32,6.017725586314457e+30,6137643.148102793,43146515993247.2,0.0
33,6.01772558422508e+30,6137461.411760495,90208059219299.52,0.0
34,6.017725582736424e+30,6137365.543664688,123741768718460.45,0.0
35,6.017725581447971e+30,6137294.558626978,152767227194962.94,0.0
36,6.017725578927234e+30,6137176.210425835,209556350423621.78,0.0
37,6.017725582126096e+30,6137330.798713967,137490682986244.4,0.0
38,6.017725586101607e+30,6137620.349648703,47940534170579.96,0.0
39,6.01772558586511e+30,6137596.570034191,53267214811250.25,0.0
40,6.017725582126096e+30,6137330.798713967,137490682986244.4,0.0
41,6.017725580694519e+30,6137256.75908585,169741133681953.97,0.0
42,6.017725579857372e+30,6137217.333007683,188600993246168.4,0.0
43,6.017725584985984e+30,6137518.912904927,73068678488964.23,0.0
44,6.0177255724773e+30,6136942.48321573,354882547760582.44,0.0
45,6.017725588191475e+30,6138061.45336356,874832865524.2827,0.0
46,6.017725585602341e+30,6137571.7670425875,59185741644378.83,0.0
47,6.017725575469741e+30,6137041.918098684,287455887761539.25,0.0
48,6.017725582126096e+30,6137330.798713967,137490682986244.4,0.0
49,6.017725582126096e+30,6137330.798713967,137490682986244.4,0.0
50,6.01772558422508e+30,6137461.411760495,90208059219299.52,0.0
51,6.017725581447971e+30,6137294.558626978,152767227194962.94,0.0
52,6.017725581447971e+30,6137294.558626978,152767227194962.94,0.0
53,6.01772558667844e+30,6137685.961763726,34948731557995.92,0.0
54,6.017725577893778e+30,6137133.318366129,232840031553881.03,0.0
55,6.017725586101607e+30,6137620.349648703,47940534170579.96,0.0
56,6.017725586314457e+30,6137643.148102793,43146515993247.2,0.0
57,6.017725587405547e+30,6137794.737287539,18573261223644.86,0.0
58,6.017725580694519e+30,6137256.75908585,169741133681953.97,0.0
59,6.017725583285732e+30,6137398.855145817,111367724754507.0,0.0
60,6.017725579857372e+30,6137217.333007683,188600993246168.4,0.0
61,6.017725577893778e+30,6137133.318366129,232840031553881.03,0.0
62,6.01772558378012e+30,6137430.792281992,100231066960647.08,0.0
63,6.017725583285732e+30,6137398.855145817,111367724754507.0,0.0
64,6.01772558422508e+30,6137461.411760495,90208059219299.52,0.0
65,6.017725582126096e+30,6137330.798713967,137490682986244.4,0.0
66,6.017725582126096e+30,6137330.798713967,137490682986244.4,0.0
67,6.017725587098971e+30,6137743.78262427,25477678079787.16,0.0
68,6.017725582126096e+30,6137330.798713967,137490682986244.4,0.0
69,6.017725579857372e+30,6137217.333007683,188600993246168.4,0.0
70,6.017725586973275e+30,6137725.315203443,28308512471466.664,0.0
71,6.01772557674553e+30,6137088.580717761,258710731500500.38,0.0
72,6.017725575469741e+30,6137041.918098684,287455887761539.25,0.0
73,6.017725574052243e+30,6136993.24771523,319394873898691.75,0.0
74,6.01772558378012e+30,6137430.792281992,100231066960647.08,0.0
75,6.017725585602341e+30,6137571.7670425875,59185741644378.83,0.0
76,6.017725577893778e+30,6137133.318366129,232840031553881.03,0.0
77,6.01772558586511e+30,6137596.570034191,53267214811250.25,0.0
78,6.017725586314457e+30,6137643.148102793,43146515993247.2,0.0
79,6.017725587098971e+30,6137743.78262427,25477678079787.16,0.0
80,6.017725586833615e+30,6137706.052983497,31453881041223.15,0.0
81,6.017725582126096e+30,6137330.798713967,137490682986244.4,0.0
82,6.017725581447971e+30,6137294.558626978,152767227194962.94,0.0
83,6.017725582736424e+30,6137365.543664688,123741768718460.45,0.0
84,6.01772558667844e+30,6137685.961763726,34948731557995.92,0.0
85,6.017725588020664e+30,6137954.224994718,4721100775851.76,0.0
86,6.017725582126096e+30,6137330.798713967,137490682986244.4,0.0
87,6.017725581447971e+30,6137294.558626978,152767227194962.94,0.0
88,6.01772558422508e+30,6137461.411760495,90208059219299.52,0.0
89,6.017725580694519e+30,6137256.75908585,169741133681953.97,0.0
90,6.017725587743286e+30,6137866.573617738,10967353243650.383,0.0
91,6.017725587098971e+30,6137743.78262427,25477678079787.16,0.0
92,6.017725580694519e+30,6137256.75908585,169741133681953.97,0.0
93,6.01772558667844e+30,6137685.961763726,34948731557995.92,0.0
94,6.017725586314457e+30,6137643.148102793,43146515993247.2,0.0
95,6.01772558422508e+30,6137461.411760495,90208059219299.52,0.0
96,6.017725583285732e+30,6137398.855145817,111367724754507.0,0.0
97,6.017725582736424e+30,6137365.543664688,123741768718460.45,0.0
98,6.01772558531038e+30,6137545.896641526,65761874211805.05,0.0
99,6.017725587942727e+30,6137924.762386273,6476125916360.971,0.0
100,6.017725582126096e+30,6137330.798713967,137490682986244.4,0.0
101,6.017725584985984e+30,6137518.912904927,73068678488964.23,0.0
102,6.01772558586511e+30,6137596.570034191,53267214811250.25,0.0
103,6.017725579857372e+30,6137217.333007683,188600993246168.4,0.0
104,6.017725587405547e+30,6137794.737287539,18573261223644.86,0.0
105,6.017725583285732e+30,6137398.855145817,111367724754507.0,0.0
106,6.01772558422508e+30,6137461.411760495,90208059219299.52,0.0
107,6.017725586973275e+30,6137725.315203443,28308512471466.664,0.0
108,6.017725585602341e+30,6137571.7670425875,59185741644378.83,0.0
109,6.017725582736424e+30,6137365.543664688,123741768718460.45,0.0
110,6.017725585602341e+30,6137571.7670425875,59185741644378.83,0.0
111,6.017725588209681e+30,6138086.340656965,464922467373.6398,0.0
112,6.01772558378012e+30,6137430.792281992,100231066960647.08,0.0
113,6.017725586506026e+30,6137665.005872252,38831894800977.26,0.0
114,6.017725587791988e+30,6137879.212264598,9870622388289.73,0.0
115,6.01772558531038e+30,6137545.896641526,65761874211805.05,0.0
116,6.017725586314457e+30,6137643.148102793,43146515993247.2,0.0
117,6.017725587313913e+30,6137778.462876863,20636944883592.754,0.0
118,6.01772558531038e+30,6137545.896641526,65761874211805.05,0.0
119,6.017725586101607e+30,6137620.349648703,47940534170579.96,0.0
120,6.017725587743286e+30,6137866.573617738,10967353243650.383,0.0
121,6.017725585602341e+30,6137571.7670425875,59185741644378.83,0.0
122,6.01772558378012e+30,6137430.792281992,100231066960647.08,0.0
123,6.017725580694519e+30,6137256.75908585,169741133681953.97,0.0
124,6.01772557674553e+30,6137088.580717761,258710731500500.38,0.0
125,6.017725582126096e+30,6137330.798713967,137490682986244.4,0.0
126,6.017725584625552e+30,6137490.767931621,81187338681892.75,0.0
127,6.01772558422508e+30,6137461.411760495,90208059219299.52,0.0
128,6.01772558378012e+30,6137430.792281992,100231066960647.08,0.0
129,6.017725584625552e+30,6137490.767931621,81187338681892.75,0.0
130,6.017725581447971e+30,6137294.558626978,152767227194962.94,0.0
131,6.01772558531038e+30,6137545.896641526,65761874211805.05,0.0
132,6.01772558748802e+30,6137810.340166112,16715944444701.326,0.0
133,6.01772558586511e+30,6137596.570034191,53267214811250.25,0.0
134,6.01772558422508e+30,6137461.411760495,90208059219299.52,0.0
135,6.01772558378012e+30,6137430.792281992,100231066960647.08,0.0
136,6.017725587313913e+30,6137778.462876863,20636944883592.754,0.0
137,6.017725581447971e+30,6137294.558626978,152767227194962.94,0.0
138,6.017725582736424e+30,6137365.543664688,123741768718460.45,0.0
139,6.01772558422508e+30,6137461.411760495,90208059219299.52,0.0
140,6.017725586973275e+30,6137725.315203443,28308512471466.664,0.0
141,6.017725586314457e+30,6137643.148102793,43146515993247.2,0.0
142,6.017725583285732e+30,6137398.855145817,111367724754507.0,0.0
143,6.01772558667844e+30,6137685.961763726,34948731557995.92,0.0
144,6.017725588177032e+30,6138046.441283379,1200044437678.5056,0.0
145,6.01772558762905e+30,6137839.641008089,13539929212534.72,0.0
146,6.017725579857372e+30,6137217.333007683,188600993246168.4,0.0
147,6.017725581447971e+30,6137294.558626978,152767227194962.94,0.0
148,6.017725586314457e+30,6137643.148102793,43146515993247.2,0.0
149,6.017725578927234e+30,6137176.210425835,209556350423621.78,0.0
150,6.017725587562246e+30,6137825.29921857,15044358062309.566,0.0
151,6.017725583285732e+30,6137398.855145817,111367724754507.0,0.0
152,6.01772558378012e+30,6137430.792281992,100231066960647.08,0.0
153,6.017725584985984e+30,6137518.912904927,73068678488964.23,0.0
154,6.017725586973275e+30,6137725.315203443,28308512471466.664,0.0
155,6.01772558422508e+30,6137461.411760495,90208059219299.52,0.0
156,6.01772558378012e+30,6137430.792281992,100231066960647.08,0.0
157,6.017725581447971e+30,6137294.558626978,152767227194962.94,0.0
158,6.017725587910773e+30,6137914.084242644,7195692710099.127,0.0
159,6.017725579857372e+30,6137217.333007683,188600993246168.4,0.0
160,6.017725586101607e+30,6137620.349648703,47940534170579.96,0.0
161,6.017725579857372e+30,6137217.333007683,188600993246168.4,0.0
162,6.017725570727428e+30,6136889.534537873,394313193916830.75,0.0
163,6.017725586314457e+30,6137643.148102793,43146515993247.2,0.0
164,6.01772558422508e+30,6137461.411760495,90208059219299.52,0.0
165,6.017725586101607e+30,6137620.349648703,47940534170579.96,0.0
166,6.01772558531038e+30,6137545.896641526,65761874211805.05,0.0
167,6.017725577893778e+30,6137133.318366129,232840031553881.03,0.0
168,6.017725579857372e+30,6137217.333007683,188600993246168.4,0.0
169,6.017725582736424e+30,6137365.543664688,123741768718460.45,0.0
170,6.01772558422508e+30,6137461.411760495,90208059219299.52,0.0
171,6.017725578927234e+30,6137176.210425835,209556350423621.78,0.0
172,6.017725587405547e+30,6137794.737287539,18573261223644.86,0.0
173,6.01772558422508e+30,6137461.411760495,90208059219299.52,0.0
174,6.017725584985984e+30,6137518.912904927,73068678488964.23,0.0
175,6.017725577893778e+30,6137133.318366129,232840031553881.03,0.0
176,6.01772557674553e+30,6137088.580717761,258710731500500.38,0.0
177,6.017725579857372e+30,6137217.333007683,188600993246168.4,0.0
178,6.017725583285732e+30,6137398.855145817,111367724754507.0,0.0
179,6.017725577893778e+30,6137133.318366129,232840031553881.03,0.0
180,6.01772558748802e+30,6137810.340166112,16715944444701.326,0.0
181,6.017725582736424e+30,6137365.543664688,123741768718460.45,0.0
182,6.017725579857372e+30,6137217.333007683,188600993246168.4,0.0
183,6.01772558378012e+30,6137430.792281992,100231066960647.08,0.0
184,6.01772558816453e+30,6138035.325388645,1481535752868.2964,0.0
185,6.017725586973275e+30,6137725.315203443,28308512471466.664,0.0
186,6.017725581447971e+30,6137294.558626978,152767227194962.94,0.0
187,6.017725582126096e+30,6137330.798713967,137490682986244.4,0.0
188,6.017725582736424e+30,6137365.543664688,123741768718460.45,0.0
189,6.01772558810652e+30,6137995.761256613,2787766945169.16,0.0
190,6.017725577893778e+30,6137133.318366129,232840031553881.03,0.0
191,6.017725588092764e+30,6137988.13901073,3097517982190.9365,0.0
192,6.017725577893778e+30,6137133.318366129,232840031553881.03,0.0
193,6.017725581447971e+30,6137294.558626978,152767227194962.94,0.0
194,6.017725587405547e+30,6137794.737287539,18573261223644.86,0.0
195,6.017725583285732e+30,6137398.855145817,111367724754507.0,0.0
196,6.017725580694519e+30,6137256.75908585,169741133681953.97,0.0
197,6.017725586833615e+30,6137706.052983497,31453881041223.15,0.0
198,6.017725575469741e+30,6137041.918098684,287455887761539.25,0.0
199,6.017725575469741e+30,6137041.918098684,287455887761539.25,0.0
200,6.017725574052243e+30,6136993.24771523,319394873898691.75,0.0
201,6.017725577893778e+30,6137133.318366129,232840031553881.03,0.0
202,6.017725582736424e+30,6137365.543664688,123741768718460.45,0.0
203,6.017725577893778e+30,6137133.318366129,232840031553881.03,0.0
204,6.017725586506026e+30,6137665.005872252,38831894800977.26,0.0
205,6.017725581447971e+30,6137294.558626978,152767227194962.94,0.0
206,6.017725583285732e+30,6137398.855145817,111367724754507.0,0.0
207,6.017725570727428e+30,6136889.534537873,394313193916830.75,0.0
208,6.017725577893778e+30,6137133.318366129,232840031553881.03,0.0
209,6.017725586973275e+30,6137725.315203443,28308512471466.664,0.0
210,6.017725580694519e+30,6137256.75908585,169741133681953.97,0.0
211,6.017725577893778e+30,6137133.318366129,232840031553881.03,0.0
212,6.01772558586511e+30,6137596.570034191,53267214811250.25,0.0
213,6.017725570727428e+30,6136889.534537873,394313193916830.75,0.0
214,6.017725575469741e+30,6137041.918098684,287455887761539.25,0.0
215,6.017725584985984e+30,6137518.912904927,73068678488964.23,0.0
216,6.017725579857372e+30,6137217.333007683,188600993246168.4,0.0
217,6.017725584625552e+30,6137490.767931621,81187338681892.75,0.0
218,6.017725579857372e+30,6137217.333007683,188600993246168.4,0.0
219,6.01772558422508e+30,6137461.411760495,90208059219299.52,0.0
220,6.01772558422508e+30,6137461.411760495,90208059219299.52,0.0
221,6.01772558378012e+30,6137430.792281992,100231066960647.08,0.0
222,6.017725584625552e+30,6137490.767931621,81187338681892.75,0.0
223,6.017725579857372e+30,6137217.333007683,188600993246168.4,0.0
224,6.017725582736424e+30,6137365.543664688,123741768718460.45,0.0
225,6.01772558378012e+30,6137430.792281992,100231066960647.08,0.0
226,6.017725579857372e+30,6137217.333007683,188600993246168.4,0.0
227,6.01772558586511e+30,6137596.570034191,53267214811250.25,0.0
228,6.01772558378012e+30,6137430.792281992,100231066960647.08,0.0
229,6.017725581447971e+30,6137294.558626978,152767227194962.94,0.0
230,6.01772557674553e+30,6137088.580717761,258710731500500.38,0.0
231,6.017725581447971e+30,6137294.558626978,152767227194962.94,0.0
232,6.017725580694519e+30,6137256.75908585,169741133681953.97,0.0
233,6.017725582126096e+30,6137330.798713967,137490682986244.4,0.0
234,6.017725581447971e+30,6137294.558626978,152767227194962.94,0.0
235,6.017725587212098e+30,6137761.48803615,22929924815752.285,0.0
236,6.01772558378012e+30,6137430.792281992,100231066960647.08,0.0
237,6.017725581447971e+30,6137294.558626978,152767227194962.94,0.0
238,6.01772558422508e+30,6137461.411760495,90208059219299.52,0.0
239,6.01772558378012e+30,6137430.792281992,100231066960647.08,0.0
240,6.01772558667844e+30,6137685.961763726,34948731557995.92,0.0
241,6.017725588020664e+30,6137954.224994718,4721100775851.76,0.0
242,6.017725574052243e+30,6136993.24771523,319394873898691.75,0.0
243,6.017725586101607e+30,6137620.349648703,47940534170579.96,0.0
244,6.017725586101607e+30,6137620.349648703,47940534170579.96,0.0
245,6.017725586314457e+30,6137643.148102793,43146515993247.2,0.0
246,6.017725580694519e+30,6137256.75908585,169741133681953.97,0.0
247,6.017725586101607e+30,6137620.349648703,47940534170579.96,0.0
248,6.017725582736424e+30,6137365.543664688,123741768718460.45,0.0
249,6.017725575469741e+30,6137041.918098684,287455887761539.25,0.0
250,6.017725587875268e+30,6137902.946502657,7995210932333.708,0.0
251,6.01772558667844e+30,6137685.961763726,34948731557995.92,0.0
252,6.017725585602341e+30,6137571.7670425875,59185741644378.83,0.0
253,6.01772558531038e+30,6137545.896641526,65761874211805.05,0.0
254,6.017725586101607e+30,6137620.349648703,47940534170579.96,0.0
255,6.01772558586511e+30,6137596.570034191,53267214811250.25,0.0
256,6.017725579857372e+30,6137217.333007683,188600993246168.4,0.0
257,6.01772558586511e+30,6137596.570034191,53267214811250.25,0.0
258,6.017725577893778e+30,6137133.318366129,232840031553881.03,0.0
259,6.017725575469741e+30,6137041.918098684,287455887761539.25,0.0
260,6.017725586833615e+30,6137706.052983497,31453881041223.15,0.0
261,6.017725581447971e+30,6137294.558626978,152767227194962.94,0.0
262,6.017725586314457e+30,6137643.148102793,43146515993247.2,0.0
263,6.01772558422508e+30,6137461.411760495,90208059219299.52,0.0
264,6.017725584985984e+30,6137518.912904927,73068678488964.23,0.0
265,6.017725578927234e+30,6137176.210425835,209556350423621.78,0.0
266,6.01772558748802e+30,6137810.340166112,16715944444701.326,0.0
267,6.01772558667844e+30,6137685.961763726,34948731557995.92,0.0
268,6.01772557674553e+30,6137088.580717761,258710731500500.38,0.0
269,6.017725578927234e+30,6137176.210425835,209556350423621.78,0.0
270,6.017725585602341e+30,6137571.7670425875,59185741644378.83,0.0
271,6.017725577893778e+30,6137133.318366129,232840031553881.03,0.0
272,6.017725587212098e+30,6137761.48803615,22929924815752.285,0.0
273,6.017725584985984e+30,6137518.912904927,73068678488964.23,0.0
274,6.01772558748802e+30,6137810.340166112,16715944444701.326,0.0
275,6.01772557674553e+30,6137088.580717761,258710731500500.38,0.0
276,6.017725584625552e+30,6137490.767931621,81187338681892.75,0.0
277,6.017725587997369e+30,6137944.814956158,5245665760437.019,0.0
278,6.017725579857372e+30,6137217.333007683,188600993246168.4,0.0
279,6.017725580694519e+30,6137256.75908585,169741133681953.97,0.0
280,6.017725582126096e+30,6137330.798713967,137490682986244.4,0.0
281,6.01772558586511e+30,6137596.570034191,53267214811250.25,0.0
282,6.01772558586511e+30,6137596.570034191,53267214811250.25,0.0
283,6.01772558422508e+30,6137461.411760495,90208059219299.52,0.0
284,6.017725578927234e+30,6137176.210425835,209556350423621.78,0.0
285,6.01772558531038e+30,6137545.896641526,65761874211805.05,0.0
286,6.017725587405547e+30,6137794.737287539,18573261223644.86,0.0
287,6.01772558810652e+30,6137995.761256613,2787766945169.16,0.0
288,6.017725586314457e+30,6137643.148102793,43146515993247.2,0.0
289,6.017725582736424e+30,6137365.543664688,123741768718460.45,0.0
290,6.017725584985984e+30,6137518.912904927,73068678488964.23,0.0
291,6.017725582736424e+30,6137365.543664688,123741768718460.45,0.0
292,6.017725587689174e+30,6137853.391002156,12185942293737.727,0.0
293,6.017725585602341e+30,6137571.7670425875,59185741644378.83,0.0
294,6.017725582736424e+30,6137365.543664688,123741768718460.45,0.0
295,6.0177255724773e+30,6136942.48321573,354882547760582.44,0.0
296,6.017725578927234e+30,6137176.210425835,209556350423621.78,0.0
297,6.017725577893778e+30,6137133.318366129,232840031553881.03,0.0
298,6.01772557674553e+30,6137088.580717761,258710731500500.38,0.0
299,6.017725586506026e+30,6137665.005872252,38831894800977.26,0.0
300,6.017725587791988e+30,6137879.212264598,9870622388289.73,0.0
301,6.017725588220454e+30,6138108.43982362,222371150922.59772,0.0
302,6.017725584625552e+30,6137490.767931621,81187338681892.75,0.0
303,6.017725575469741e+30,6137041.918098684,287455887761539.25,0.0
304,6.017725584985984e+30,6137518.912904927,73068678488964.23,0.0
305,6.017725583285732e+30,6137398.855145817,111367724754507.0,0.0
306,6.01772558586511e+30,6137596.570034191,53267214811250.25,0.0
307,6.017725579857372e+30,6137217.333007683,188600993246168.4,0.0
308,6.017725587791988e+30,6137879.212264598,9870622388289.73,0.0
309,6.017725577893778e+30,6137133.318366129,232840031553881.03,0.0
310,6.0177255724773e+30,6136942.48321573,354882547760582.44,0.0
311,6.017725574052243e+30,6136993.24771523,319394873898691.75,0.0
312,6.017725587212098e+30,6137761.48803615,22929924815752.285,0.0
313,6.017725582126096e+30,6137330.798713967,137490682986244.4,0.0
314,6.017725582736424e+30,6137365.543664688,123741768718460.45,0.0
315,6.0177255724773e+30,6136942.48321573,354882547760582.44,0.0
316,6.017725586506026e+30,6137665.005872252,38831894800977.26,0.0
317,6.01772558378012e+30,6137430.792281992,100231066960647.08,0.0
318,6.017725581447971e+30,6137294.558626978,152767227194962.94,0.0
319,6.017725587875268e+30,6137902.946502657,7995210932333.708,0.0
320,6.017725584985984e+30,6137518.912904927,73068678488964.23,0.0
321,6.017725582736424e+30,6137365.543664688,123741768718460.45,0.0
322,6.01772557674553e+30,6137088.580717761,258710731500500.38,0.0
323,6.017725584985984e+30,6137518.912904927,73068678488964.23,0.0
324,6.017725587743286e+30,6137866.573617738,10967353243650.383,0.0
325,6.01772558378012e+30,6137430.792281992,100231066960647.08,0.0
326,6.017725583285732e+30,6137398.855145817,111367724754507.0,0.0
327,6.017725579857372e+30,6137217.333007683,188600993246168.4,0.0
328,6.017725578927234e+30,6137176.210425835,209556350423621.78,0.0
329,6.017725578927234e+30,6137176.210425835,209556350423621.78,0.0
330,6.017725586973275e+30,6137725.315203443,28308512471466.664,0.0
331,6.017725587098971e+30,6137743.78262427,25477678079787.16,0.0
332,6.017725586973275e+30,6137725.315203443,28308512471466.664,0.0
333,6.017725585602341e+30,6137571.7670425875,59185741644378.83,0.0
334,6.017725575469741e+30,6137041.918098684,287455887761539.25,0.0
335,6.017725580694519e+30,6137256.75908585,169741133681953.97,0.0
336,6.01772558815722e+30,6138029.406077088,1646150487463.6255,0.0
337,6.017725584985984e+30,6137518.912904927,73068678488964.23,0.0
338,6.017725587212098e+30,6137761.48803615,22929924815752.285,0.0
339,6.017725582126096e+30,6137330.798713967,137490682986244.4,0.0
340,6.017725577893778e+30,6137133.318366129,232840031553881.03,0.0
341,6.017725582126096e+30,6137330.798713967,137490682986244.4,0.0
342,6.017725577893778e+30,6137133.318366129,232840031553881.03,0.0
343,6.017725587910773e+30,6137914.084242644,7195692710099.127,0.0
344,6.017725582126096e+30,6137330.798713967,137490682986244.4,0.0
345,6.017725586314457e+30,6137643.148102793,43146515993247.2,0.0
346,6.01772558378012e+30,6137430.792281992,100231066960647.08,0.0
347,6.017725580694519e+30,6137256.75908585,169741133681953.97,0.0
348,6.017725586101607e+30,6137620.349648703,47940534170579.96,0.0
349,6.01772557674553e+30,6137088.580717761,258710731500500.38,0.0
350,6.017725584985984e+30,6137518.912904927,73068678488964.23,0.0
351,6.017725587743286e+30,6137866.573617738,10967353243650.383,0.0
352,6.01772558748802e+30,6137810.340166112,16715944444701.326,0.0
353,6.01772558531038e+30,6137545.896641526,65761874211805.05,0.0
354,6.01772558422508e+30,6137461.411760495,90208059219299.52,0.0
355,6.01772558586511e+30,6137596.570034191,53267214811250.25,0.0
356,6.017725582736424e+30,6137365.543664688,123741768718460.45,0.0
357,6.017725583285732e+30,6137398.855145817,111367724754507.0,0.0
358,6.017725587313913e+30,6137778.462876863,20636944883592.754,0.0
359,6.01772558422508e+30,6137461.411760495,90208059219299.52,0.0
360,6.017725588092764e+30,6137988.13901073,3097517982190.9365,0.0
361,6.017725578927234e+30,6137176.210425835,209556350423621.78,0.0
362,6.017725587689174e+30,6137853.391002156,12185942293737.727,0.0
363,6.017725587971486e+30,6137934.99989705,5828515462264.853,0.0
364,6.01772557674553e+30,6137088.580717761,258710731500500.38,0.0
365,6.017725579857372e+30,6137217.333007683,188600993246168.4,0.0
366,6.017725580694519e+30,6137256.75908585,169741133681953.97,0.0
367,6.01772558422508e+30,6137461.411760495,90208059219299.52,0.0
368,6.01772558378012e+30,6137430.792281992,100231066960647.08,0.0
369,6.017725584625552e+30,6137490.767931621,81187338681892.75,0.0
370,6.017725581447971e+30,6137294.558626978,152767227194962.94,0.0
371,6.017725587098971e+30,6137743.78262427,25477678079787.16,0.0
372,6.017725584625552e+30,6137490.767931621,81187338681892.75,0.0
373,6.017725585602341e+30,6137571.7670425875,59185741644378.83,0.0
374,6.017725582736424e+30,6137365.543664688,123741768718460.45,0.0
375,6.017725578927234e+30,6137176.210425835,209556350423621.78,0.0
376,6.017725586101607e+30,6137620.349648703,47940534170579.96,0.0
377,6.017725584985984e+30,6137518.912904927,73068678488964.23,0.0
378,6.017725581447971e+30,6137294.558626978,152767227194962.94,0.0
379,6.01772558422508e+30,6137461.411760495,90208059219299.52,0.0
380,6.01772557674553e+30,6137088.580717761,258710731500500.38,0.0
381,6.017725588213605e+30,6138093.332940065,376587292899.6388,0.0
382,6.017725580694519e+30,6137256.75908585,169741133681953.97,0.0
383,6.017725588041629e+30,6137963.246724722,4248992071472.8228,0.0
384,6.017725586101607e+30,6137620.349648703,47940534170579.96,0.0
385,6.017725579857372e+30,6137217.333007683,188600993246168.4,0.0
386,6.017725574052243e+30,6136993.24771523,319394873898691.75,0.0
387,6.017725579857372e+30,6137217.333007683,188600993246168.4,0.0
388,6.017725581447971e+30,6137294.558626978,152767227194962.94,0.0
389,6.017725584625552e+30,6137490.767931621,81187338681892.75,0.0
390,6.017725586506026e+30,6137665.005872252,38831894800977.26,0.0
391,6.017725581447971e+30,6137294.558626978,152767227194962.94,0.0
392,6.017725584625552e+30,6137490.767931621,81187338681892.75,0.0
393,6.017725587212098e+30,6137761.48803615,22929924815752.285,0.0
394,6.017725583285732e+30,6137398.855145817,111367724754507.0,0.0
395,6.017725587212098e+30,6137761.48803615,22929924815752.285,0.0
396,6.017725580694519e+30,6137256.75908585,169741133681953.97,0.0
397,6.017725581447971e+30,6137294.558626978,152767227194962.94,0.0
398,6.017725577893778e+30,6137133.318366129,232840031553881.03,0.0
399,6.017725579857372e+30,6137217.333007683,188600993246168.4,0.0
400,6.017725581447971e+30,6137294.558626978,152767227194962.94,0.0
401,6.017725584985984e+30,6137518.912904927,73068678488964.23,0.0
402,6.017725581447971e+30,6137294.558626978,152767227194962.94,0.0
403,6.017725578927234e+30,6137176.210425835,209556350423621.78,0.0
404,6.01772557674553e+30,6137088.580717761,258710731500500.38,0.0
405,6.017725582126096e+30,6137330.798713967,137490682986244.4,0.0
406,6.017725584625552e+30,6137490.767931621,81187338681892.75,0.0
407,6.017725586101607e+30,6137620.349648703,47940534170579.96,0.0
408,6.01772558378012e+30,6137430.792281992,100231066960647.08,0.0
409,6.017725586833615e+30,6137706.052983497,31453881041223.15,0.0
410,6.017725578927234e+30,6137176.210425835,209556350423621.78,0.0
411,6.01772558378012e+30,6137430.792281992,100231066960647.08,0.0
412,6.017725578927234e+30,6137176.210425835,209556350423621.78,0.0
413,6.017725582126096e+30,6137330.798713967,137490682986244.4,0.0
414,6.017725583285732e+30,6137398.855145817,111367724754507.0,0.0
415,6.017725582126096e+30,6137330.798713967,137490682986244.4,0.0
416,6.01772558667844e+30,6137685.961763726,34948731557995.92,0.0
417,6.017725582736424e+30,6137365.543664688,123741768718460.45,0.0
418,6.01772558586511e+30,6137596.570034191,53267214811250.25,0.0
419,6.01772558422508e+30,6137461.411760495,90208059219299.52,0.0
420,6.017725579857372e+30,6137217.333007683,188600993246168.4,0.0
421,6.017725587212098e+30,6137761.48803615,22929924815752.285,0.0
422,6.017725584625552e+30,6137490.767931621,81187338681892.75,0.0
423,6.017725585602341e+30,6137571.7670425875,59185741644378.83,0.0
424,6.017725575469741e+30,6137041.918098684,287455887761539.25,0.0
425,6.01772558378012e+30,6137430.792281992,100231066960647.08,0.0
426,6.017725584625552e+30,6137490.767931621,81187338681892.75,0.0
427,6.017725578927234e+30,6137176.210425835,209556350423621.78,0.0
428,6.017725580694519e+30,6137256.75908585,169741133681953.97,0.0
429,6.01772558531038e+30,6137545.896641526,65761874211805.05,0.0
430,6.017725583285732e+30,6137398.855145817,111367724754507.0,0.0
431,6.017725581447971e+30,6137294.558626978,152767227194962.94,0.0
432,6.017725582736424e+30,6137365.543664688,123741768718460.45,0.0
433,6.017725587098971e+30,6137743.78262427,25477678079787.16,0.0
434,6.017725582126096e+30,6137330.798713967,137490682986244.4,0.0
435,6.017725568783199e+30,6136834.3077495415,438124904098318.8,0.0
436,6.017725578927234e+30,6137176.210425835,209556350423621.78,0.0
437,6.01772558531038e+30,6137545.896641526,65761874211805.05,0.0
438,6.01772557674553e+30,6137088.580717761,258710731500500.38,0.0
439,6.017725578927234e+30,6137176.210425835,209556350423621.78,0.0
440,6.017725582736424e+30,6137365.543664688,123741768718460.45,0.0
441,6.017725584985984e+30,6137518.912904927,73068678488964.23,0.0
442,6.017725586101607e+30,6137620.349648703,47940534170579.96,0.0
443,6.017725574052243e+30,6136993.24771523,319394873898691.75,0.0
444,6.017725586101607e+30,6137620.349648703,47940534170579.96,0.0
445,6.01772558422508e+30,6137461.411760495,90208059219299.52,0.0
446,6.017725587875268e+30,6137902.946502657,7995210932333.708,0.0
447,6.017725584985984e+30,6137518.912904927,73068678488964.23,0.0
448,6.017725588020664e+30,6137954.224994718,4721100775851.76,0.0
449,6.017725588060498e+30,6137971.896168693,3824094049210.5186,0.0
450,6.017725586314457e+30,6137643.148102793,43146515993247.2,0.0
451,6.017725582736424e+30,6137365.543664688,123741768718460.45,0.0
452,6.017725582736424e+30,6137365.543664688,123741768718460.45,0.0
453,6.017725582126096e+30,6137330.798713967,137490682986244.4,0.0
454,6.017725584625552e+30,6137490.767931621,81187338681892.75,0.0
455,6.01772558378012e+30,6137430.792281992,100231066960647.08,0.0
456,6.017725582736424e+30,6137365.543664688,123741768718460.45,0.0
457,6.017725582736424e+30,6137365.543664688,123741768718460.45,0.0
458,6.017725578927234e+30,6137176.210425835,209556350423621.78,0.0
459,6.017725587405547e+30,6137794.737287539,18573261223644.86,0.0
460,6.017725586101607e+30,6137620.349648703,47940534170579.96,0.0
461,6.017725582126096e+30,6137330.798713967,137490682986244.4,0.0
462,6.017725587098971e+30,6137743.78262427,25477678079787.16,0.0
463,6.017725580694519e+30,6137256.75908585,169741133681953.97,0.0
464,6.017725585602341e+30,6137571.7670425875,59185741644378.83,0.0
465,6.017725582736424e+30,6137365.543664688,123741768718460.45,0.0
466,6.017725582126096e+30,6137330.798713967,137490682986244.4,0.0
467,6.017725588118901e+30,6138003.068963298,2508990907458.8804,0.0
468,6.017725588041629e+30,6137963.246724722,4248992071472.8228,0.0
469,6.017725582736424e+30,6137365.543664688,123741768718460.45,0.0
470,6.01772558378012e+30,6137430.792281992,100231066960647.08,0.0
471,6.017725586314457e+30,6137643.148102793,43146515993247.2,0.0
472,6.01772558378012e+30,6137430.792281992,100231066960647.08,0.0
473,6.01772558531038e+30,6137545.896641526,65761874211805.05,0.0
474,6.017725582126096e+30,6137330.798713967,137490682986244.4,0.0
475,6.017725583285732e+30,6137398.855145817,111367724754507.0,0.0
476,6.017725578927234e+30,6137176.210425835,209556350423621.78,0.0
477,6.01772558531038e+30,6137545.896641526,65761874211805.05,0.0
478,6.01772558667844e+30,6137685.961763726,34948731557995.92,0.0
479,6.017725584985984e+30,6137518.912904927,73068678488964.23,0.0
480,6.017725586314457e+30,6137643.148102793,43146515993247.2,0.0
481,6.0177255724773e+30,6136942.48321573,354882547760582.44,0.0
482,6.017725582736424e+30,6137365.543664688,123741768718460.45,0.0
483,6.017725581447971e+30,6137294.558626978,152767227194962.94,0.0
484,6.0177255724773e+30,6136942.48321573,354882547760582.44,0.0
485,6.01772558748802e+30,6137810.340166112,16715944444701.326,0.0
486,6.017725586101607e+30,6137620.349648703,47940534170579.96,0.0
487,6.017725579857372e+30,6137217.333007683,188600993246168.4,0.0
488,6.017725577893778e+30,6137133.318366129,232840031553881.03,0.0
489,6.01772558586511e+30,6137596.570034191,53267214811250.25,0.0
490,6.017725587212098e+30,6137761.48803615,22929924815752.285,0.0
491,6.017725587313913e+30,6137778.462876863,20636944883592.754,0.0
492,6.017725580694519e+30,6137256.75908585,169741133681953.97,0.0
493,6.017725579857372e+30,6137217.333007683,188600993246168.4,0.0
494,6.01772558422508e+30,6137461.411760495,90208059219299.52,0.0
495,6.017725587212098e+30,6137761.48803615,22929924815752.285,0.0
496,6.017725577893778e+30,6137133.318366129,232840031553881.03,0.0
497,6.017725585602341e+30,6137571.7670425875,59185741644378.83,0.0
498,6.017725584985984e+30,6137518.912904927,73068678488964.23,0.0
499,6.017725581447971e+30,6137294.558626978,152767227194962.94,0.0
500,6.017725574052243e+30,6136993.24771523,319394873898691.75,0.0
501,6.01772557674553e+30,6137088.580717761,258710731500500.38,0.0
502,6.017725575469741e+30,6137041.918098684,287455887761539.25,0.0
503,6.0177255724773e+30,6136942.48321573,354882547760582.44,0.0
504,6.017725574052243e+30,6136993.24771523,319394873898691.75,0.0
505,6.01772558748802e+30,6137810.340166112,16715944444701.326,0.0
506,6.01772558667844e+30,6137685.961763726,34948731557995.92,0.0
507,6.017725582736424e+30,6137365.543664688,123741768718460.45,0.0
508,6.017725582736424e+30,6137365.543664688,123741768718460.45,0.0
509,6.017725580694519e+30,6137256.75908585,169741133681953.97,0.0
510,6.017725580694519e+30,6137256.75908585,169741133681953.97,0.0
511,6.017725581447971e+30,6137294.558626978,152767227194962.94,0.0
512,6.017725585602341e+30,6137571.7670425875,59185741644378.83,0.0
513,6.017725581447971e+30,6137294.558626978,152767227194962.94,0.0
514,6.017725586101607e+30,6137620.349648703,47940534170579.96,0.0
515,6.017725584625552e+30,6137490.767931621,81187338681892.75,0.0
516,6.017725580694519e+30,6137256.75908585,169741133681953.97,0.0
517,6.017725584985984e+30,6137518.912904927,73068678488964.23,0.0
518,6.017725587689174e+30,6137853.391002156,12185942293737.727,0.0
519,6.017725583285732e+30,6137398.855145817,111367724754507.0,0.0
520,6.017725581447971e+30,6137294.558626978,152767227194962.94,0.0
521,6.017725578927234e+30,6137176.210425835,209556350423621.78,0.0
522,6.017725582736424e+30,6137365.543664688,123741768718460.45,0.0
523,6.017725584985984e+30,6137518.912904927,73068678488964.23,0.0
524,6.017725587212098e+30,6137761.48803615,22929924815752.285,0.0
525,6.017725584625552e+30,6137490.767931621,81187338681892.75,0.0
526,6.01772558748802e+30,6137810.340166112,16715944444701.326,0.0
527,6.017725583285732e+30,6137398.855145817,111367724754507.0,0.0
528,6.017725575469741e+30,6137041.918098684,287455887761539.25,0.0
529,6.017725578927234e+30,6137176.210425835,209556350423621.78,0.0
530,6.017725581447971e+30,6137294.558626978,152767227194962.94,0.0
531,6.01772558748802e+30,6137810.340166112,16715944444701.326,0.0
532,6.017725578927234e+30,6137176.210425835,209556350423621.78,0.0
533,6.017725582736424e+30,6137365.543664688,123741768718460.45,0.0
534,6.017725587689174e+30,6137853.391002156,12185942293737.727,0.0
535,6.017725584985984e+30,6137518.912904927,73068678488964.23,0.0
536,6.01772558667844e+30,6137685.961763726,34948731557995.92,0.0
537,6.017725587313913e+30,6137778.462876863,20636944883592.754,0.0
538,6.017725586101607e+30,6137620.349648703,47940534170579.96,0.0
539,6.017725583285732e+30,6137398.855145817,111367724754507.0,0.0
540,6.017725580694519e+30,6137256.75908585,169741133681953.97,0.0
541,6.017725587910773e+30,6137914.084242644,7195692710099.127,0.0
542,6.017725586314457e+30,6137643.148102793,43146515993247.2,0.0
543,6.017725575469741e+30,6137041.918098684,287455887761539.25,0.0
544,6.017725577893778e+30,6137133.318366129,232840031553881.03,0.0
545,6.017725587212098e+30,6137761.48803615,22929924815752.285,0.0
546,6.017725582736424e+30,6137365.543664688,123741768718460.45,0.0
547,6.017725577893778e+30,6137133.318366129,232840031553881.03,0.0
548,6.017725586833615e+30,6137706.052983497,31453881041223.15,0.0
549,6.017725583285732e+30,6137398.855145817,111367724754507.0,0.0
550,6.01772558422508e+30,6137461.411760495,90208059219299.52,0.0
551,6.017725574052243e+30,6136993.24771523,319394873898691.75,0.0
552,6.017725585602341e+30,6137571.7670425875,59185741644378.83,0.0
553,6.017725586973275e+30,6137725.315203443,28308512471466.664,0.0
554,6.017725580694519e+30,6137256.75908585,169741133681953.97,0.0
555,6.017725581447971e+30,6137294.558626978,152767227194962.94,0.0
556,6.017725578927234e+30,6137176.210425835,209556350423621.78,0.0
557,6.017725579857372e+30,6137217.333007683,188600993246168.4,0.0
558,6.01772558378012e+30,6137430.792281992,100231066960647.08,0.0
559,6.01772558531038e+30,6137545.896641526,65761874211805.05,0.0
560,6.01772558531038e+30,6137545.896641526,65761874211805.05,0.0
561,6.01772558378012e+30,6137430.792281992,100231066960647.08,0.0
562,6.017725582126096e+30,6137330.798713967,137490682986244.4,0.0
563,6.017725578927234e+30,6137176.210425835,209556350423621.78,0.0
564,6.01772558762905e+30,6137839.641008089,13539929212534.72,0.0
565,6.017725584625552e+30,6137490.767931621,81187338681892.75,0.0
566,6.017725588041629e+30,6137963.246724722,4248992071472.8228,0.0
567,6.017725586833615e+30,6137706.052983497,31453881041223.15,0.0
568,6.017725585602341e+30,6137571.7670425875,59185741644378.83,0.0
569,6.017725587562246e+30,6137825.29921857,15044358062309.566,0.0
570,6.017725586833615e+30,6137706.052983497,31453881041223.15,0.0
571,6.017725585602341e+30,6137571.7670425875,59185741644378.83,0.0
572,6.017725579857372e+30,6137217.333007683,188600993246168.4,0.0
573,6.017725582736424e+30,6137365.543664688,123741768718460.45,0.0
574,6.017725584985984e+30,6137518.912904927,73068678488964.23,0.0
575,6.017725582736424e+30,6137365.543664688,123741768718460.45,0.0
576,6.017725587098971e+30,6137743.78262427,25477678079787.16,0.0
577,6.017725582126096e+30,6137330.798713967,137490682986244.4,0.0
578,6.017725574052243e+30,6136993.24771523,319394873898691.75,0.0
579,6.017725580694519e+30,6137256.75908585,169741133681953.97,0.0
580,6.017725580694519e+30,6137256.75908585,169741133681953.97,0.0
581,6.017725583285732e+30,6137398.855145817,111367724754507.0,0.0
582,6.017725584985984e+30,6137518.912904927,73068678488964.23,0.0
583,6.017725582736424e+30,6137365.543664688,123741768718460.45,0.0
584,6.017725574052243e+30,6136993.24771523,319394873898691.75,0.0
585,6.017725586101607e+30,6137620.349648703,47940534170579.96,0.0
586,6.0177255724773e+30,6136942.48321573,354882547760582.44,0.0
587,6.017725577893778e+30,6137133.318366129,232840031553881.03,0.0
588,6.017725584625552e+30,6137490.767931621,81187338681892.75,0.0
589,6.017725582736424e+30,6137365.543664688,123741768718460.45,0.0
590,6.017725583285732e+30,6137398.855145817,111367724754507.0,0.0
591,6.017725575469741e+30,6137041.918098684,287455887761539.25,0.0
592,6.017725583285732e+30,6137398.855145817,111367724754507.0,0.0
593,6.017725578927234e+30,6137176.210425835,209556350423621.78,0.0
594,6.01772558422508e+30,6137461.411760495,90208059219299.52,0.0
595,6.017725582126096e+30,6137330.798713967,137490682986244.4,0.0
596,6.017725584625552e+30,6137490.767931621,81187338681892.75,0.0
597,6.017725586314457e+30,6137643.148102793,43146515993247.2,0.0
598,6.017725583285732e+30,6137398.855145817,111367724754507.0,0.0
599,6.017725578927234e+30,6137176.210425835,209556350423621.78,0.0
600,6.017725587562246e+30,6137825.29921857,15044358062309.566,0.0
601,6.017725582126096e+30,6137330.798713967,137490682986244.4,0.0
602,6.017725585602341e+30,6137571.7670425875,59185741644378.83,0.0
603,6.017725583285732e+30,6137398.855145817,111367724754507.0,0.0
604,6.017725579857372e+30,6137217.333007683,188600993246168.4,0.0
605,6.01772558531038e+30,6137545.896641526,65761874211805.05,0.0
606,6.01772558422508e+30,6137461.411760495,90208059219299.52,0.0
607,6.017725581447971e+30,6137294.558626978,152767227194962.94,0.0
608,6.017725584625552e+30,6137490.767931621,81187338681892.75,0.0
609,6.017725575469741e+30,6137041.918098684,287455887761539.25,0.0
610,6.0177255724773e+30,6136942.48321573,354882547760582.44,0.0
611,6.017725582126096e+30,6137330.798713967,137490682986244.4,0.0
612,6.017725587313913e+30,6137778.462876863,20636944883592.754,0.0
613,6.017725587791988e+30,6137879.212264598,9870622388289.73,0.0
614,6.01772558422508e+30,6137461.411760495,90208059219299.52,0.0
615,6.017725586314457e+30,6137643.148102793,43146515993247.2,0.0
616,6.01772558586511e+30,6137596.570034191,53267214811250.25,0.0
617,6.017725580694519e+30,6137256.75908585,169741133681953.97,0.0
618,6.017725583285732e+30,6137398.855145817,111367724754507.0,0.0
619,6.017725585602341e+30,6137571.7670425875,59185741644378.83,0.0
620,6.017725587942727e+30,6137924.762386273,6476125916360.971,0.0
621,6.017725586833615e+30,6137706.052983497,31453881041223.15,0.0
622,6.017725584625552e+30,6137490.767931621,81187338681892.75,0.0
623,6.017725586973275e+30,6137725.315203443,28308512471466.664,0.0
624,6.017725587942727e+30,6137924.762386273,6476125916360.971,0.0
625,6.017725585602341e+30,6137571.7670425875,59185741644378.83,0.0
626,6.017725587313913e+30,6137778.462876863,20636944883592.754,0.0
627,6.017725584985984e+30,6137518.912904927,73068678488964.23,0.0
628,6.017725579857372e+30,6137217.333007683,188600993246168.4,0.0
629,6.017725586101607e+30,6137620.349648703,47940534170579.96,0.0
630,6.017725582126096e+30,6137330.798713967,137490682986244.4,0.0
631,6.017725586314457e+30,6137643.148102793,43146515993247.2,0.0
632,6.017725587562246e+30,6137825.29921857,15044358062309.566,0.0
633,6.017725586973275e+30,6137725.315203443,28308512471466.664,0.0
634,6.017725586833615e+30,6137706.052983497,31453881041223.15,0.0
635,6.017725584625552e+30,6137490.767931621,81187338681892.75,0.0
636,6.017725586101607e+30,6137620.349648703,47940534170579.96,0.0
637,6.017725585602341e+30,6137571.7670425875,59185741644378.83,0.0
638,6.017725587743286e+30,6137866.573617738,10967353243650.383,0.0
639,6.01772558667844e+30,6137685.961763726,34948731557995.92,0.0
640,6.017725584625552e+30,6137490.767931621,81187338681892.75,0.0
641,6.017725578927234e+30,6137176.210425835,209556350423621.78,0.0
642,6.017725580694519e+30,6137256.75908585,169741133681953.97,0.0
643,6.017725586314457e+30,6137643.148102793,43146515993247.2,0.0
644,6.017725587835819e+30,6137891.329386827,8883564005589.957,0.0
645,6.017725586973275e+30,6137725.315203443,28308512471466.664,0.0
646,6.017725586833615e+30,6137706.052983497,31453881041223.15,0.0
647,6.017725588198858e+30,6138070.45731832,708614849632.6797,0.0
648,6.017725583285732e+30,6137398.855145817,111367724754507.0,0.0
649,6.017725580694519e+30,6137256.75908585,169741133681953.97,0.0
650,6.017725586101607e+30,6137620.349648703,47940534170579.96,0.0
651,6.01772558762905e+30,6137839.641008089,13539929212534.72,0.0
652,6.017725584985984e+30,6137518.912904927,73068678488964.23,0.0
653,6.01772558422508e+30,6137461.411760495,90208059219299.52,0.0
654,6.017725583285732e+30,6137398.855145817,111367724754507.0,0.0
655,6.01772558422508e+30,6137461.411760495,90208059219299.52,0.0
656,6.017725584625552e+30,6137490.767931621,81187338681892.75,0.0
657,6.017725579857372e+30,6137217.333007683,188600993246168.4,0.0
658,6.017725586506026e+30,6137665.005872252,38831894800977.26,0.0
659,6.017725586833615e+30,6137706.052983497,31453881041223.15,0.0
660,6.017725579857372e+30,6137217.333007683,188600993246168.4,0.0
661,6.017725586506026e+30,6137665.005872252,38831894800977.26,0.0
662,6.017725583285732e+30,6137398.855145817,111367724754507.0,0.0
663,6.017725586506026e+30,6137665.005872252,38831894800977.26,0.0
664,6.017725584985984e+30,6137518.912904927,73068678488964.23,0.0
665,6.017725587689174e+30,6137853.391002156,12185942293737.727,0.0
666,6.01772558422508e+30,6137461.411760495,90208059219299.52,0.0
667,6.01772558586511e+30,6137596.570034191,53267214811250.25,0.0
668,6.017725582126096e+30,6137330.798713967,137490682986244.4,0.0
669,6.017725585602341e+30,6137571.7670425875,59185741644378.83,0.0
670,6.017725578927234e+30,6137176.210425835,209556350423621.78,0.0
671,6.017725582736424e+30,6137365.543664688,123741768718460.45,0.0
672,6.017725582736424e+30,6137365.543664688,123741768718460.45,0.0
673,6.01772558762905e+30,6137839.641008089,13539929212534.72,0.0
674,6.017725588020664e+30,6137954.224994718,4721100775851.76,0.0
675,6.017725579857372e+30,6137217.333007683,188600993246168.4,0.0
676,6.01772557674553e+30,6137088.580717761,258710731500500.38,0.0
677,6.017725577893778e+30,6137133.318366129,232840031553881.03,0.0
678,6.017725578927234e+30,6137176.210425835,209556350423621.78,0.0
679,6.01772558422508e+30,6137461.411760495,90208059219299.52,0.0
680,6.017725583285732e+30,6137398.855145817,111367724754507.0,0.0
681,6.017725581447971e+30,6137294.558626978,152767227194962.94,0.0
682,6.017725586314457e+30,6137643.148102793,43146515993247.2,0.0
683,6.01772558531038e+30,6137545.896641526,65761874211805.05,0.0
684,6.017725584985984e+30,6137518.912904927,73068678488964.23,0.0
685,6.017725586506026e+30,6137665.005872252,38831894800977.26,0.0
686,6.017725588041629e+30,6137963.246724722,4248992071472.8228,0.0
687,6.01772558422508e+30,6137461.411760495,90208059219299.52,0.0
688,6.01772557674553e+30,6137088.580717761,258710731500500.38,0.0
689,6.017725578927234e+30,6137176.210425835,209556350423621.78,0.0
690,6.017725579857372e+30,6137217.333007683,188600993246168.4,0.0
691,6.017725580694519e+30,6137256.75908585,169741133681953.97,0.0
692,6.017725586101607e+30,6137620.349648703,47940534170579.96,0.0
693,6.017725582126096e+30,6137330.798713967,137490682986244.4,0.0
694,6.017725582736424e+30,6137365.543664688,123741768718460.45,0.0
695,6.01772558531038e+30,6137545.896641526,65761874211805.05,0.0
696,6.017725586101607e+30,6137620.349648703,47940534170579.96,0.0
697,6.017725586314457e+30,6137643.148102793,43146515993247.2,0.0
698,6.017725577893778e+30,6137133.318366129,232840031553881.03,0.0
699,6.017725579857372e+30,6137217.333007683,188600993246168.4,0.0
700,6.017725584625552e+30,6137490.767931621,81187338681892.75,0.0
701,6.017725587405547e+30,6137794.737287539,18573261223644.86,0.0
702,6.017725580694519e+30,6137256.75908585,169741133681953.97,0.0
703,6.017725579857372e+30,6137217.333007683,188600993246168.4,0.0
704,6.017725580694519e+30,6137256.75908585,169741133681953.97,0.0
705,6.017725587942727e+30,6137924.762386273,6476125916360.971,0.0
706,6.017725580694519e+30,6137256.75908585,169741133681953.97,0.0
707,6.017725584985984e+30,6137518.912904927,73068678488964.23,0.0
708,6.01772558531038e+30,6137545.896641526,65761874211805.05,0.0
709,6.017725575469741e+30,6137041.918098684,287455887761539.25,0.0
710,6.017725581447971e+30,6137294.558626978,152767227194962.94,0.0
711,6.017725586506026e+30,6137665.005872252,38831894800977.26,0.0
712,6.017725586973275e+30,6137725.315203443,28308512471466.664,0.0
713,6.01772558422508e+30,6137461.411760495,90208059219299.52,0.0
714,6.01772558531038e+30,6137545.896641526,65761874211805.05,0.0
715,6.017725577893778e+30,6137133.318366129,232840031553881.03,0.0
716,6.017725587212098e+30,6137761.48803615,22929924815752.285,0.0
717,6.017725577893778e+30,6137133.318366129,232840031553881.03,0.0
718,6.017725587689174e+30,6137853.391002156,12185942293737.727,0.0
719,6.017725586973275e+30,6137725.315203443,28308512471466.664,0.0
720,6.01772558422508e+30,6137461.411760495,90208059219299.52,0.0
721,6.01772558531038e+30,6137545.896641526,65761874211805.05,0.0
722,6.017725587997369e+30,6137944.814956158,5245665760437.019,0.0
723,6.01772558531038e+30,6137545.896641526,65761874211805.05,0.0
724,6.017725587997369e+30,6137944.814956158,5245665760437.019,0.0
725,6.0177255724773e+30,6136942.48321573,354882547760582.44,0.0
726,6.017725584985984e+30,6137518.912904927,73068678488964.23,0.0
727,6.01772558378012e+30,6137430.792281992,100231066960647.08,0.0
728,6.017725587942727e+30,6137924.762386273,6476125916360.971,0.0
729,6.01772558531038e+30,6137545.896641526,65761874211805.05,0.0
730,6.017725585602341e+30,6137571.7670425875,59185741644378.83,0.0
731,6.017725582126096e+30,6137330.798713967,137490682986244.4,0.0
732,6.017725586314457e+30,6137643.148102793,43146515993247.2,0.0
733,6.017725584625552e+30,6137490.767931621,81187338681892.75,0.0
734,6.017725587971486e+30,6137934.99989705,5828515462264.853,0.0
735,6.017725577893778e+30,6137133.318366129,232840031553881.03,0.0
736,6.017725581447971e+30,6137294.558626978,152767227194962.94,0.0
737,6.017725586833615e+30,6137706.052983497,31453881041223.15,0.0
738,6.017725579857372e+30,6137217.333007683,188600993246168.4,0.0
739,6.017725586506026e+30,6137665.005872252,38831894800977.26,0.0
740,6.017725582126096e+30,6137330.798713967,137490682986244.4,0.0
741,6.01772558422508e+30,6137461.411760495,90208059219299.52,0.0
742,6.017725577893778e+30,6137133.318366129,232840031553881.03,0.0
743,6.017725582126096e+30,6137330.798713967,137490682986244.4,0.0
744,6.01772558422508e+30,6137461.411760495,90208059219299.52,0.0
745,6.017725577893778e+30,6137133.318366129,232840031553881.03,0.0
746,6.017725586833615e+30,6137706.052983497,31453881041223.15,0.0
747,6.01772558531038e+30,6137545.896641526,65761874211805.05,0.0
748,6.0177255724773e+30,6136942.48321573,354882547760582.44,0.0
749,6.017725586101607e+30,6137620.349648703,47940534170579.96,0.0
750,6.017725579857372e+30,6137217.333007683,188600993246168.4,0.0
751,6.017725587098971e+30,6137743.78262427,25477678079787.16,0.0
752,6.017725580694519e+30,6137256.75908585,169741133681953.97,0.0
753,6.017725586506026e+30,6137665.005872252,38831894800977.26,0.0
754,6.017725587562246e+30,6137825.29921857,15044358062309.566,0.0
755,6.017725587689174e+30,6137853.391002156,12185942293737.727,0.0
756,6.01772558378012e+30,6137430.792281992,100231066960647.08,0.0
757,6.017725584985984e+30,6137518.912904927,73068678488964.23,0.0
758,6.017725582126096e+30,6137330.798713967,137490682986244.4,0.0
759,6.017725586314457e+30,6137643.148102793,43146515993247.2,0.0
760,6.017725586101607e+30,6137620.349648703,47940534170579.96,0.0
761,6.017725574052243e+30,6136993.24771523,319394873898691.75,0.0
762,6.017725587098971e+30,6137743.78262427,25477678079787.16,0.0
763,6.017725582126096e+30,6137330.798713967,137490682986244.4,0.0
764,6.017725588215277e+30,6138096.614186817,338928603447.7285,0.0
765,6.017725581447971e+30,6137294.558626978,152767227194962.94,0.0
766,6.017725575469741e+30,6137041.918098684,287455887761539.25,0.0
767,6.017725585602341e+30,6137571.7670425875,59185741644378.83,0.0
768,6.01772558422508e+30,6137461.411760495,90208059219299.52,0.0
769,6.01772557674553e+30,6137088.580717761,258710731500500.38,0.0
770,6.01772558748802e+30,6137810.340166112,16715944444701.326,0.0
771,6.017725586833615e+30,6137706.052983497,31453881041223.15,0.0
772,6.017725580694519e+30,6137256.75908585,169741133681953.97,0.0
773,6.01772558817111e+30,6138041.0004308475,1333382448649.686,0.0
774,6.017725586101607e+30,6137620.349648703,47940534170579.96,0.0
775,6.017725586314457e+30,6137643.148102793,43146515993247.2,0.0
776,6.017725586314457e+30,6137643.148102793,43146515993247.2,0.0
777,6.017725580694519e+30,6137256.75908585,169741133681953.97,0.0
778,6.017725583285732e+30,6137398.855145817,111367724754507.0,0.0
779,6.017725584625552e+30,6137490.767931621,81187338681892.75,0.0
780,6.01772558762905e+30,6137839.641008089,13539929212534.72,0.0
781,6.017725586506026e+30,6137665.005872252,38831894800977.26,0.0
782,6.017725578927234e+30,6137176.210425835,209556350423621.78,0.0
783,6.017725588020664e+30,6137954.224994718,4721100775851.76,0.0
784,6.017725582736424e+30,6137365.543664688,123741768718460.45,0.0
785,6.017725575469741e+30,6137041.918098684,287455887761539.25,0.0
786,6.017725587313913e+30,6137778.462876863,20636944883592.754,0.0
787,6.017725574052243e+30,6136993.24771523,319394873898691.75,0.0
788,6.017725587313913e+30,6137778.462876863,20636944883592.754,0.0
789,6.017725587313913e+30,6137778.462876863,20636944883592.754,0.0
790,6.017725580694519e+30,6137256.75908585,169741133681953.97,0.0
791,6.017725583285732e+30,6137398.855145817,111367724754507.0,0.0
792,6.01772558531038e+30,6137545.896641526,65761874211805.05,0.0
793,6.017725580694519e+30,6137256.75908585,169741133681953.97,0.0
794,6.01772558378012e+30,6137430.792281992,100231066960647.08,0.0
795,6.017725577893778e+30,6137133.318366129,232840031553881.03,0.0
796,6.017725587212098e+30,6137761.48803615,22929924815752.285,0.0
797,6.017725577893778e+30,6137133.318366129,232840031553881.03,0.0
798,6.017725578927234e+30,6137176.210425835,209556350423621.78,0.0
799,6.017725585602341e+30,6137571.7670425875,59185741644378.83,0.0
800,6.017725586101607e+30,6137620.349648703,47940534170579.96,0.0
801,6.017725580694519e+30,6137256.75908585,169741133681953.97,0.0
802,6.017725586314457e+30,6137643.148102793,43146515993247.2,0.0
803,6.017725580694519e+30,6137256.75908585,169741133681953.97,0.0
804,6.017725586833615e+30,6137706.052983497,31453881041223.15,0.0
805,6.017725580694519e+30,6137256.75908585,169741133681953.97,0.0
806,6.017725584985984e+30,6137518.912904927,73068678488964.23,0.0
807,6.017725584985984e+30,6137518.912904927,73068678488964.23,0.0
808,6.017725586833615e+30,6137706.052983497,31453881041223.15,0.0
809,6.017725575469741e+30,6137041.918098684,287455887761539.25,0.0
810,6.017725579857372e+30,6137217.333007683,188600993246168.4,0.0
811,6.017725584625552e+30,6137490.767931621,81187338681892.75,0.0
812,6.017725581447971e+30,6137294.558626978,152767227194962.94,0.0
813,6.017725579857372e+30,6137217.333007683,188600993246168.4,0.0
814,6.017725575469741e+30,6137041.918098684,287455887761539.25,0.0
815,6.017725578927234e+30,6137176.210425835,209556350423621.78,0.0
816,6.01772558378012e+30,6137430.792281992,100231066960647.08,0.0
817,6.017725588118901e+30,6138003.068963298,2508990907458.8804,0.0
818,6.01772558586511e+30,6137596.570034191,53267214811250.25,0.0
819,6.0177255724773e+30,6136942.48321573,354882547760582.44,0.0
820,6.017725585602341e+30,6137571.7670425875,59185741644378.83,0.0
821,6.017725588041629e+30,6137963.246724722,4248992071472.8228,0.0
822,6.017725578927234e+30,6137176.210425835,209556350423621.78,0.0
823,6.01772558422508e+30,6137461.411760495,90208059219299.52,0.0
824,6.017725587212098e+30,6137761.48803615,22929924815752.285,0.0
825,6.01772558422508e+30,6137461.411760495,90208059219299.52,0.0
826,6.017725583285732e+30,6137398.855145817,111367724754507.0,0.0
827,6.017725586973275e+30,6137725.315203443,28308512471466.664,0.0
828,6.017725586101607e+30,6137620.349648703,47940534170579.96,0.0
829,6.017725587562246e+30,6137825.29921857,15044358062309.566,0.0
830,6.017725583285732e+30,6137398.855145817,111367724754507.0,0.0
831,6.01772558378012e+30,6137430.792281992,100231066960647.08,0.0
832,6.017725581447971e+30,6137294.558626978,152767227194962.94,0.0
833,6.01772558667844e+30,6137685.961763726,34948731557995.92,0.0
834,6.017725582126096e+30,6137330.798713967,137490682986244.4,0.0
835,6.017725577893778e+30,6137133.318366129,232840031553881.03,0.0
836,6.017725584625552e+30,6137490.767931621,81187338681892.75,0.0
837,6.017725582126096e+30,6137330.798713967,137490682986244.4,0.0
838,6.017725587212098e+30,6137761.48803615,22929924815752.285,0.0
839,6.01772558378012e+30,6137430.792281992,100231066960647.08,0.0
840,6.01772558667844e+30,6137685.961763726,34948731557995.92,0.0
841,6.017725580694519e+30,6137256.75908585,169741133681953.97,0.0
842,6.017725584625552e+30,6137490.767931621,81187338681892.75,0.0
843,6.017725578927234e+30,6137176.210425835,209556350423621.78,0.0
844,6.017725587689174e+30,6137853.391002156,12185942293737.727,0.0
845,6.017725584985984e+30,6137518.912904927,73068678488964.23,0.0
846,6.017725584625552e+30,6137490.767931621,81187338681892.75,0.0
847,6.01772558586511e+30,6137596.570034191,53267214811250.25,0.0
848,6.017725582736424e+30,6137365.543664688,123741768718460.45,0.0
849,6.017725575469741e+30,6137041.918098684,287455887761539.25,0.0
850,6.017725587212098e+30,6137761.48803615,22929924815752.285,0.0
851,6.017725587791988e+30,6137879.212264598,9870622388289.73,0.0
852,6.017725584985984e+30,6137518.912904927,73068678488964.23,0.0
853,6.01772558422508e+30,6137461.411760495,90208059219299.52,0.0
854,6.017725581447971e+30,6137294.558626978,152767227194962.94,0.0
855,6.017725582126096e+30,6137330.798713967,137490682986244.4,0.0
856,6.017725585602341e+30,6137571.7670425875,59185741644378.83,0.0
857,6.017725578927234e+30,6137176.210425835,209556350423621.78,0.0
858,6.017725586833615e+30,6137706.052983497,31453881041223.15,0.0
859,6.017725584985984e+30,6137518.912904927,73068678488964.23,0.0
860,6.017725586101607e+30,6137620.349648703,47940534170579.96,0.0
861,6.017725585602341e+30,6137571.7670425875,59185741644378.83,0.0
862,6.017725584985984e+30,6137518.912904927,73068678488964.23,0.0
863,6.017725581447971e+30,6137294.558626978,152767227194962.94,0.0
864,6.017725587971486e+30,6137934.99989705,5828515462264.853,0.0
865,6.01772558531038e+30,6137545.896641526,65761874211805.05,0.0
866,6.017725583285732e+30,6137398.855145817,111367724754507.0,0.0
867,6.01772558422508e+30,6137461.411760495,90208059219299.52,0.0
868,6.017725582126096e+30,6137330.798713967,137490682986244.4,0.0
869,6.017725586506026e+30,6137665.005872252,38831894800977.26,0.0
870,6.017725582736424e+30,6137365.543664688,123741768718460.45,0.0
871,6.017725584625552e+30,6137490.767931621,81187338681892.75,0.0
872,6.017725586101607e+30,6137620.349648703,47940534170579.96,0.0
873,6.01772557674553e+30,6137088.580717761,258710731500500.38,0.0
874,6.01772557674553e+30,6137088.580717761,258710731500500.38,0.0
875,6.017725584985984e+30,6137518.912904927,73068678488964.23,0.0
876,6.017725577893778e+30,6137133.318366129,232840031553881.03,0.0
877,6.01772558422508e+30,6137461.411760495,90208059219299.52,0.0
878,6.017725584625552e+30,6137490.767931621,81187338681892.75,0.0
879,6.017725582736424e+30,6137365.543664688,123741768718460.45,0.0
880,6.017725580694519e+30,6137256.75908585,169741133681953.97,0.0
881,6.017725584985984e+30,6137518.912904927,73068678488964.23,0.0
882,6.017725582126096e+30,6137330.798713967,137490682986244.4,0.0
883,6.017725578927234e+30,6137176.210425835,209556350423621.78,0.0
884,6.017725584625552e+30,6137490.767931621,81187338681892.75,0.0
885,6.017725580694519e+30,6137256.75908585,169741133681953.97,0.0
886,6.017725584625552e+30,6137490.767931621,81187338681892.75,0.0
887,6.01772558586511e+30,6137596.570034191,53267214811250.25,0.0
888,6.017725578927234e+30,6137176.210425835,209556350423621.78,0.0
889,6.017725577893778e+30,6137133.318366129,232840031553881.03,0.0
890,6.017725587997369e+30,6137944.814956158,5245665760437.019,0.0
891,6.017725583285732e+30,6137398.855145817,111367724754507.0,0.0
892,6.017725575469741e+30,6137041.918098684,287455887761539.25,0.0
893,6.017725582736424e+30,6137365.543664688,123741768718460.45,0.0
894,6.017725587562246e+30,6137825.29921857,15044358062309.566,0.0
895,6.017725586101607e+30,6137620.349648703,47940534170579.96,0.0
896,6.01772558586511e+30,6137596.570034191,53267214811250.25,0.0
897,6.017725586101607e+30,6137620.349648703,47940534170579.96,0.0
898,6.017725583285732e+30,6137398.855145817,111367724754507.0,0.0
899,6.017725575469741e+30,6137041.918098684,287455887761539.25,0.0
900,6.01772558422508e+30,6137461.411760495,90208059219299.52,0.0
901,6.017725575469741e+30,6137041.918098684,287455887761539.25,0.0
902,6.01772558762905e+30,6137839.641008089,13539929212534.72,0.0
903,6.017725583285732e+30,6137398.855145817,111367724754507.0,0.0
904,6.017725586973275e+30,6137725.315203443,28308512471466.664,0.0
905,6.017725581447971e+30,6137294.558626978,152767227194962.94,0.0
906,6.01772558378012e+30,6137430.792281992,100231066960647.08,0.0
907,6.017725580694519e+30,6137256.75908585,169741133681953.97,0.0
908,6.017725581447971e+30,6137294.558626978,152767227194962.94,0.0
909,6.017725578927234e+30,6137176.210425835,209556350423621.78,0.0
910,6.017725583285732e+30,6137398.855145817,111367724754507.0,0.0
911,6.017725587212098e+30,6137761.48803615,22929924815752.285,0.0
912,6.01772558378012e+30,6137430.792281992,100231066960647.08,0.0
913,6.017725580694519e+30,6137256.75908585,169741133681953.97,0.0
914,6.017725579857372e+30,6137217.333007683,188600993246168.4,0.0
915,6.017725585602341e+30,6137571.7670425875,59185741644378.83,0.0
916,6.017725584625552e+30,6137490.767931621,81187338681892.75,0.0
917,6.01772558378012e+30,6137430.792281992,100231066960647.08,0.0
918,6.01772558667844e+30,6137685.961763726,34948731557995.92,0.0
919,6.017725586101607e+30,6137620.349648703,47940534170579.96,0.0
920,6.017725583285732e+30,6137398.855145817,111367724754507.0,0.0
921,6.01772558378012e+30,6137430.792281992,100231066960647.08,0.0
922,6.017725586506026e+30,6137665.005872252,38831894800977.26,0.0
923,6.017725577893778e+30,6137133.318366129,232840031553881.03,0.0
924,6.01772558378012e+30,6137430.792281992,100231066960647.08,0.0
925,6.017725588020664e+30,6137954.224994718,4721100775851.76,0.0
926,6.01772558667844e+30,6137685.961763726,34948731557995.92,0.0
927,6.017725574052243e+30,6136993.24771523,319394873898691.75,0.0
928,6.017725582736424e+30,6137365.543664688,123741768718460.45,0.0
929,6.017725583285732e+30,6137398.855145817,111367724754507.0,0.0
930,6.01772558531038e+30,6137545.896641526,65761874211805.05,0.0
931,6.017725588060498e+30,6137971.896168693,3824094049210.5186,0.0
932,6.017725586314457e+30,6137643.148102793,43146515993247.2,0.0
933,6.017725586101607e+30,6137620.349648703,47940534170579.96,0.0
934,6.017725587405547e+30,6137794.737287539,18573261223644.86,0.0
935,6.017725586314457e+30,6137643.148102793,43146515993247.2,0.0
936,6.017725582736424e+30,6137365.543664688,123741768718460.45,0.0
937,6.01772558378012e+30,6137430.792281992,100231066960647.08,0.0
938,6.017725587405547e+30,6137794.737287539,18573261223644.86,0.0
939,6.017725587910773e+30,6137914.084242644,7195692710099.127,0.0
940,6.01772558422508e+30,6137461.411760495,90208059219299.52,0.0
941,6.017725579857372e+30,6137217.333007683,188600993246168.4,0.0
942,6.017725578927234e+30,6137176.210425835,209556350423621.78,0.0
943,6.017725584625552e+30,6137490.767931621,81187338681892.75,0.0
944,6.017725583285732e+30,6137398.855145817,111367724754507.0,0.0
945,6.017725587562246e+30,6137825.29921857,15044358062309.566,0.0
946,6.017725587212098e+30,6137761.48803615,22929924815752.285,0.0
947,6.01772558586511e+30,6137596.570034191,53267214811250.25,0.0
948,6.017725587405547e+30,6137794.737287539,18573261223644.86,0.0
949,6.01772558422508e+30,6137461.411760495,90208059219299.52,0.0
950,6.017725587098971e+30,6137743.78262427,25477678079787.16,0.0
951,6.01772558422508e+30,6137461.411760495,90208059219299.52,0.0
952,6.01772558378012e+30,6137430.792281992,100231066960647.08,0.0
953,6.017725582736424e+30,6137365.543664688,123741768718460.45,0.0
954,6.017725587743286e+30,6137866.573617738,10967353243650.383,0.0
955,6.017725581447971e+30,6137294.558626978,152767227194962.94,0.0
956,6.017725585602341e+30,6137571.7670425875,59185741644378.83,0.0
957,6.017725584625552e+30,6137490.767931621,81187338681892.75,0.0
958,6.017725584985984e+30,6137518.912904927,73068678488964.23,0.0
959,6.017725582736424e+30,6137365.543664688,123741768718460.45,0.0
960,6.017725585602341e+30,6137571.7670425875,59185741644378.83,0.0
961,6.017725575469741e+30,6137041.918098684,287455887761539.25,0.0
962,6.017725581447971e+30,6137294.558626978,152767227194962.94,0.0
963,6.017725588060498e+30,6137971.896168693,3824094049210.5186,0.0
964,6.017725582126096e+30,6137330.798713967,137490682986244.4,0.0
965,6.017725579857372e+30,6137217.333007683,188600993246168.4,0.0
966,6.017725585602341e+30,6137571.7670425875,59185741644378.83,0.0
967,6.017725578927234e+30,6137176.210425835,209556350423621.78,0.0
968,6.017725584625552e+30,6137490.767931621,81187338681892.75,0.0
969,6.017725584985984e+30,6137518.912904927,73068678488964.23,0.0
970,6.017725581447971e+30,6137294.558626978,152767227194962.94,0.0
971,6.017725587313913e+30,6137778.462876863,20636944883592.754,0.0
972,6.017725582736424e+30,6137365.543664688,123741768718460.45,0.0
973,6.017725582126096e+30,6137330.798713967,137490682986244.4,0.0
974,6.017725587562246e+30,6137825.29921857,15044358062309.566,0.0
975,6.017725586506026e+30,6137665.005872252,38831894800977.26,0.0
976,6.017725587942727e+30,6137924.762386273,6476125916360.971,0.0
977,6.017725582736424e+30,6137365.543664688,123741768718460.45,0.0
978,6.017725584625552e+30,6137490.767931621,81187338681892.75,0.0
979,6.01772557674553e+30,6137088.580717761,258710731500500.38,0.0
980,6.017725586314457e+30,6137643.148102793,43146515993247.2,0.0
981,6.01772558378012e+30,6137430.792281992,100231066960647.08,0.0
982,6.017725586506026e+30,6137665.005872252,38831894800977.26,0.0
983,6.017725584625552e+30,6137490.767931621,81187338681892.75,0.0
984,6.017725587212098e+30,6137761.48803615,22929924815752.285,0.0
985,6.01772558762905e+30,6137839.641008089,13539929212534.72,0.0
986,6.01772557674553e+30,6137088.580717761,258710731500500.38,0.0
987,6.017725579857372e+30,6137217.333007683,188600993246168.4,0.0
988,6.017725579857372e+30,6137217.333007683,188600993246168.4,0.0
989,6.017725582736424e+30,6137365.543664688,123741768718460.45,0.0
990,6.017725577893778e+30,6137133.318366129,232840031553881.03,0.0
991,6.017725586506026e+30,6137665.005872252,38831894800977.26,0.0
992,6.01772558378012e+30,6137430.792281992,100231066960647.08,0.0
993,6.01772557674553e+30,6137088.580717761,258710731500500.38,0.0
994,6.017725579857372e+30,6137217.333007683,188600993246168.4,0.0
995,6.017725570727428e+30,6136889.534537873,394313193916830.75,0.0
996,6.01772558531038e+30,6137545.896641526,65761874211805.05,0.0
997,6.017725577893778e+30,6137133.318366129,232840031553881.03,0.0
998,6.01772558422508e+30,6137461.411760495,90208059219299.52,0.0
999,6.017725583285732e+30,6137398.855145817,111367724754507.0,0.0
