,0
0,1.694775810230043e-05
1,1.0150906391313756e-05
2,1.2589447629378242e-06
3,7.1822415542679955e-06
4,5.413634559484436e-06
5,6.135594246158777e-06
6,6.840029899564923e-06
7,7.025290970978928e-07
8,1.5989110303007087e-05
9,4.1323696458552885e-06
10,2.665392726198305e-06
11,7.022352159656897e-06
12,1.8627236782462997e-06
13,1.081596349168099e-05
14,7.625871506639546e-06
15,1.2395081104889698e-05
16,9.954434944917984e-06
17,5.710659313812423e-06
18,7.313895041260782e-06
19,5.8332016044813085e-06
20,3.7159761749766886e-07
21,1.1200328435043359e-05
22,8.738040087016287e-06
23,7.03529301978648e-06
24,6.601237197479867e-06
25,1.3266674299286625e-05
26,1.616168577567454e-05
27,5.519278889586751e-06
28,7.542722118406699e-06
29,6.590858758318614e-06
30,2.55543093415939e-06
31,7.323790313478089e-06
32,7.20143682888703e-07
33,4.4745079103048135e-06
34,8.47076034981255e-06
35,7.30339979408648e-06
36,5.678526467662626e-07
37,7.389058099172935e-06
38,4.442328278399574e-06
39,1.5309901453210416e-05
40,6.3176913738707935e-06
41,9.730782889901851e-06
42,7.0358865267124406e-06
43,3.4053238259260837e-06
44,1.8895578236076403e-05
45,1.8976580599080082e-07
46,1.8263987456709384e-06
47,6.95603211586574e-06
48,1.4543059534103082e-05
49,1.542283946805244e-05
50,3.0012634821386663e-06
51,1.2250374367945353e-05
52,6.197857765365405e-06
53,1.1764231488629566e-05
54,1.4906525000840091e-05
55,5.997599262610979e-08
56,1.7361219413126494e-05
57,8.88922654688308e-06
58,6.35753526956486e-06
59,2.0870566944043597e-06
60,2.1264882880737452e-07
61,5.100580087081556e-06
62,3.4247923301705795e-06
63,1.5338839240798436e-05
64,8.23945694096484e-06
65,1.132656446364648e-05
66,1.1989557266229756e-07
67,5.4255992183129496e-06
68,3.153613645422542e-06
69,1.2340981656971855e-05
70,1.5439240329487356e-06
71,2.0192829648673875e-06
72,2.083705407920605e-07
73,6.710687287061738e-06
74,7.288222891625207e-06
75,7.459608520816856e-06
76,4.7526788416503935e-06
77,9.449208123804776e-06
78,1.9010240259092365e-05
79,1.6656902562091549e-06
80,1.5737521651293995e-05
81,7.442053812116629e-06
82,1.652115067341796e-05
83,5.081222265805697e-06
84,1.5110167335018991e-05
85,4.886394763059687e-06
86,5.45657266588464e-06
87,1.7681858183357853e-06
88,7.280720159471124e-06
89,8.514468500877311e-06
90,1.8696363782833743e-05
91,1.234125424421549e-05
92,3.897791646894319e-06
93,1.2099862407874867e-05
94,1.541680033022206e-05
95,7.773190688430822e-06
96,1.1166010666949228e-05
97,5.6484663883202045e-06
98,4.266428425873393e-05
99,2.786650454784128e-06
100,1.9220273789325842e-05
101,9.399442015271945e-06
102,1.0189255536129547e-05
103,2.8976639289454483e-06
104,1.7611618909317077e-06
105,1.5046974582463135e-05
106,1.8850002481093426e-06
107,4.2899570009962294e-07
108,7.68590145874452e-06
109,4.3051764182600735e-06
110,7.074446879103904e-06
111,3.931320698646658e-06
112,3.1855714629261135e-05
113,1.0941203388857243e-05
114,9.977927160841796e-06
115,7.801338406497064e-07
116,1.2704275797325103e-05
117,8.502203752873146e-06
118,7.273219469072935e-06
119,6.124674676596861e-06
120,6.195019923592324e-07
121,2.5903787922814553e-08
122,1.65936393768739e-05
123,1.1415982267245025e-05
124,7.5948685969335005e-06
125,5.032725161661947e-06
126,6.012926112620872e-06
127,1.06239080381589e-05
128,1.539257405818096e-05
129,1.4699272320953806e-05
130,3.8421688324550564e-06
131,1.1165684653511872e-05
132,1.5984059379375387e-05
133,1.3234918734565176e-05
134,7.166493655787807e-07
135,1.2808054849339992e-05
136,1.6345186335764124e-05
137,1.1029993547981726e-05
138,3.754016894909509e-06
139,1.485949988893306e-05
140,1.0254155260306787e-05
141,3.3970391617470487e-06
142,1.8798465102265615e-05
143,1.939077226791413e-05
144,1.3229525414012674e-06
145,1.80624378700667e-06
146,7.412276773871621e-06
147,1.656962268471555e-06
148,3.535868050847997e-06
149,1.5862232058455887e-06
150,4.079100789913662e-07
151,5.935819007294853e-06
152,5.366391429587502e-06
153,7.188803584306668e-06
154,1.4501908296394217e-05
155,1.0054366153867714e-05
156,1.5400813644832518e-06
157,2.6227962283774557e-05
158,1.921944550600881e-05
159,1.3716700104123677e-05
160,2.7770382640657485e-06
161,5.212328525541073e-06
162,1.0420571117741161e-05
163,1.651746446781915e-05
164,4.9874166320877e-06
165,1.24698681263403e-05
166,1.6910540927148833e-05
167,4.10385478883959e-06
168,1.6910771918829969e-06
169,6.526335007217761e-07
170,6.653552359950369e-06
171,6.561678937555708e-06
172,5.21683466263325e-06
173,3.5185645570653076e-07
174,1.2763687272303727e-05
175,1.1301192145601143e-05
176,4.316806192560408e-06
177,4.488214301217372e-06
178,1.454917764467121e-05
179,8.161718723415119e-06
180,4.736496719146092e-06
181,1.4739212260210035e-05
182,4.4356365098648145e-07
183,7.36751432685863e-06
184,7.722744876909456e-06
185,1.613032012939873e-05
186,4.784967375008174e-06
187,4.430194487060776e-06
188,3.431477102676929e-06
189,6.943530734060702e-06
190,1.243568559782839e-05
191,1.8231157290086194e-05
192,5.802224316681878e-06
193,1.0491881305256978e-06
194,9.949187895859471e-06
195,1.9030758165524996e-05
196,3.6725816388653618e-06
197,1.828209340244235e-05
198,1.2509449573924578e-05
199,4.958456290046365e-07
200,3.2969981360298397e-06
201,9.060871965052749e-06
202,1.1864992200918579e-06
203,1.822139256582672e-05
204,2.3587633821859764e-06
205,1.335551643145077e-05
206,1.8028636059713328e-06
207,1.675263577869643e-05
208,1.9608228140822146e-06
209,1.3355457061452473e-05
210,1.1186973265335589e-05
211,1.3774834074291969e-06
212,8.221111854949611e-07
213,8.9167549773784e-07
214,7.185699045393906e-07
215,2.8090467299261354e-06
216,4.97538121714682e-06
217,2.2695418535493794e-06
218,1.7000911107871352e-06
219,3.0763916891668283e-06
220,2.709374172867487e-05
221,1.5721915196622627e-06
222,9.67955764572696e-06
223,1.1542795929957978e-05
224,6.966622797620408e-06
225,5.838215512737896e-06
226,9.29458809626067e-06
227,1.1474391605365984e-05
228,5.762770485490502e-06
229,2.17361364797329e-06
230,5.704871710724439e-06
231,6.3115652392773665e-06
232,8.06794565353178e-06
233,7.441842541415166e-06
234,5.2264112861183476e-06
235,2.871211180369161e-06
236,8.446619284165613e-06
237,1.4955929504020131e-05
238,8.568478628728094e-06
239,1.3197902251716714e-06
240,1.0029214817135241e-05
241,1.3340806783377861e-05
242,1.661121098899639e-07
243,4.7002185411068995e-06
244,3.6390444333711588e-06
245,2.2652319549094917e-05
246,7.752899969245137e-06
247,1.7473172999096446e-05
248,2.623925960880636e-06
249,1.5721036501579256e-05
250,4.809175971848686e-06
251,1.5910761966164825e-05
252,5.30061535413879e-06
253,9.957419471938908e-07
254,2.5111649329020457e-06
255,9.857871518805439e-06
256,7.478166871285597e-06
257,1.7554826755014145e-05
258,4.034616660709035e-06
259,1.2500760256418314e-05
260,1.4100513354786093e-05
261,1.1354714903291095e-05
262,1.2188403303575763e-05
263,1.1512997306860311e-05
264,9.343335596948e-06
265,1.1126805916038777e-05
266,1.4139358808393491e-06
267,6.829003676868135e-06
268,9.81532530762527e-07
269,7.933423884543954e-06
270,9.405926379778398e-06
271,1.455184986883719e-05
272,1.0888855330993656e-05
273,3.975407300754073e-06
274,6.271260569377763e-07
275,5.800865916680193e-06
276,4.919904010054778e-06
277,2.370050541096552e-05
278,2.2223611922554926e-06
279,1.199143270889476e-05
280,1.4023087551567836e-05
281,8.294611593439559e-06
282,2.338829384982397e-06
283,1.7363290151336615e-06
284,1.2675678959467758e-05
285,7.153457152657629e-06
286,3.324338331664759e-06
287,1.871461752482685e-05
288,9.525568221008246e-06
289,1.884968770032721e-05
290,1.2385408902764042e-06
291,3.587071008563381e-06
292,2.7050839232091476e-06
293,1.0003768734940749e-05
294,4.928488984836972e-06
295,1.6937611351074596e-05
296,1.4937479360152414e-05
297,7.540524889389348e-06
298,9.605350605956867e-06
299,1.67639597223418e-05
300,1.099774724670096e-05
301,1.005937648965734e-05
302,1.2172725761431447e-05
303,5.615427689880823e-07
304,1.3428834562923545e-05
305,9.240687659229693e-07
306,2.0845852154746687e-05
307,6.684006734266711e-06
308,4.063841227706562e-06
309,1.2485126022270771e-05
310,6.231901470360074e-06
311,3.258300272426107e-06
312,8.527412517592108e-06
313,6.4833502696820804e-06
314,8.27574351696308e-06
315,2.4259994900624185e-05
316,6.62585678350427e-06
317,1.6601782409016535e-05
318,6.972835345037352e-06
319,8.536892347944485e-06
320,9.315649119189311e-06
321,1.2730721364535475e-05
322,8.368131316929136e-06
323,1.8684873181779586e-06
324,1.3814997915251977e-05
325,8.796088067805485e-07
326,1.6886313254799847e-05
327,2.514432809726335e-06
328,6.962680715697685e-06
329,9.12953463322642e-06
330,1.593856644536998e-05
331,4.32438522086084e-06
332,8.194164455679441e-06
333,4.0405472909653774e-07
334,2.0124914990831125e-06
335,1.2194064079849417e-05
336,1.5129268623319787e-05
337,1.2043523774868507e-05
338,8.171842487311675e-06
339,3.986447446287392e-06
340,7.352286897984623e-06
341,1.2958031507586253e-06
342,1.2501903893497452e-05
343,2.8861560242310602e-05
344,2.755344947331156e-06
345,2.3675124873886148e-06
346,7.88135629594397e-06
347,1.0517593021411732e-05
348,4.814442333996268e-06
349,1.9461081776122287e-05
350,3.7201994354392054e-06
351,3.368306714664536e-06
352,1.1056337234951004e-05
353,7.0214593628049365e-06
354,1.4762089959342039e-05
355,6.55160555717389e-06
356,4.644424274167925e-07
357,5.037592131837996e-06
358,8.425855990287825e-06
359,6.816257261064804e-06
360,5.565491620636084e-06
361,1.3488633990119358e-06
362,1.0134107466294811e-05
363,1.22527516996828e-05
364,1.621978277297829e-05
365,1.1785031512498297e-05
366,1.4846137645174604e-05
367,4.237891151331282e-06
368,1.3003498614934164e-05
369,8.520735455095854e-06
370,7.513287134204531e-06
371,3.907257601856854e-06
372,9.789163373941453e-06
373,1.153368298308427e-05
374,2.208420408680708e-05
375,1.0795791762760492e-05
376,2.399509105800856e-06
377,5.147505183772489e-06
378,1.701162132631688e-05
379,1.5214715235328392e-05
380,3.855623771265162e-06
381,5.549437331435313e-07
382,2.9451211709221257e-06
383,8.673528133488189e-06
384,1.2190696729970467e-06
385,1.8111010593016596e-05
386,6.3882788376803035e-06
387,1.2023301624557973e-05
388,1.287167321937872e-05
389,1.9692745065350195e-06
390,5.074049582642781e-06
391,1.7593984168730356e-06
392,2.205231464880188e-05
393,1.0357703478040034e-05
394,2.1162872448012333e-06
395,5.379416598937522e-06
396,3.8284692196377795e-06
397,2.557065688507018e-06
398,1.2911981420388754e-05
399,1.3533868109677905e-06
400,5.465175886222564e-06
401,1.6435404161716085e-06
402,1.3339504437737365e-05
403,3.965854754838099e-06
404,8.238212298863673e-06
405,7.3376453124341636e-06
406,8.940966116997947e-06
407,1.0078168753811678e-05
408,2.8394037857972134e-06
409,1.1297901754624815e-06
410,1.6652444985202754e-06
411,5.299527404566392e-06
412,1.1621100485483277e-06
413,7.803604094287144e-07
414,1.1445132536290438e-05
415,7.184982617579109e-06
416,5.220330447099828e-06
417,7.241038335454841e-07
418,4.412547619006237e-06
419,1.3456844077821391e-05
420,1.0465297537835337e-05
421,2.5128100964879758e-06
422,6.657046754864985e-06
423,1.4499447253605133e-05
424,6.858651638440785e-06
425,6.895719573523636e-06
426,2.3067754928781734e-06
427,8.485392479449347e-06
428,4.4608103694054174e-06
429,8.648069748835882e-07
430,1.8608755941609042e-05
431,6.026179194011549e-07
432,1.9511148778306803e-05
433,2.2251091371942586e-06
434,1.0579619725718582e-06
435,3.695512714468568e-06
436,4.565504514581799e-06
437,1.1371421931959062e-05
438,2.885600275692689e-06
439,7.516563913272985e-06
440,3.6891004126111e-06
441,7.68291752373333e-06
442,2.6280215370203905e-05
443,6.8801600173963885e-06
444,1.599066031378604e-05
445,3.843811400898535e-06
446,1.2942175283584475e-05
447,1.018250396579219e-05
448,7.77584082063116e-06
449,5.191201311418576e-06
450,1.01635571857467e-05
451,1.2390771486392343e-05
452,4.883977012410015e-06
453,1.1142822796645356e-05
454,6.158321289893603e-06
455,1.9600098675776238e-05
456,1.4525807817959136e-06
457,1.4627535169028098e-06
458,4.010798268212168e-06
459,3.2545875380957694e-06
460,5.319973624600699e-06
461,1.0407285957537008e-05
462,3.6466481359676756e-06
463,1.4771218995494405e-05
464,1.8210654672097888e-05
465,1.1703713230986117e-05
466,4.5433946829368265e-06
467,8.000120779271272e-06
468,1.1069027168186515e-05
469,8.195403666951618e-07
470,1.723952786692303e-06
471,3.520653636376168e-07
472,1.6537250228039703e-06
473,1.5709960495702496e-05
474,1.2496376942871995e-05
475,1.8405055172613156e-06
476,3.640914414865396e-06
477,4.7067951540063176e-06
478,9.279206878401758e-06
479,1.8775181649271778e-05
480,5.08371910329986e-06
481,1.657787187319102e-05
482,1.045743935983738e-05
483,2.0243446377801817e-05
484,1.504776182315455e-05
485,2.010024426163015e-05
486,5.767618121938661e-07
487,4.428066553211872e-06
488,4.520138240934691e-06
489,1.3507388173568863e-05
490,4.056644116378304e-06
491,8.967267229420295e-07
492,2.0712826929807382e-05
493,2.0123941146303946e-05
494,1.4358399496573904e-05
495,3.1934326076227386e-06
496,2.1584331517346e-05
497,1.3533125216906413e-05
498,3.6285970751380324e-06
499,3.3691076566761867e-06
500,1.4651992149712777e-06
501,5.784465456408348e-06
502,1.2648334129633338e-06
503,7.228521789142168e-06
504,9.163117536656159e-07
505,2.4410054685991046e-06
506,1.6059020019448898e-05
507,2.3023276912027637e-05
508,1.1024620885432133e-05
509,1.4635922770119162e-05
510,8.445073728598039e-07
511,2.2285730014831036e-05
512,8.37264925227551e-06
513,9.613864073033662e-06
514,4.224741163521704e-06
515,1.325042067539053e-05
516,1.7772829027470228e-06
517,1.9753035857934388e-06
518,5.77944650746917e-06
519,9.2089319927053e-06
520,1.2109024969154362e-05
521,1.6154233362982322e-06
522,1.5098855687093952e-05
523,1.639881318364618e-06
524,9.623256398016058e-06
525,2.8287686785699016e-06
526,9.81236581165508e-06
527,2.6988768292070553e-06
528,5.749847478467235e-06
529,9.930634813302194e-07
530,7.566597489898319e-06
531,1.9960800911461638e-05
532,1.4323981236035363e-05
533,1.368932305369642e-05
534,1.3988858476874771e-05
535,1.3186432615851458e-05
536,6.1065212215024495e-06
537,2.268240581398476e-05
538,4.195720400564338e-06
539,1.773664252198466e-05
540,1.7468962294659656e-05
541,2.432865619631139e-06
542,8.90607577759021e-07
543,7.2121197396671575e-06
544,1.4286331635423415e-06
545,1.808690727116468e-05
546,1.5050054314850762e-05
547,9.948200994057125e-06
548,1.161435278524857e-06
549,6.485452773377662e-08
550,8.823040783245261e-07
551,9.52153589169626e-07
552,4.883900311239214e-06
553,2.6142093468746184e-06
554,3.5773964037687557e-06
555,1.4963272306047964e-05
556,1.3846880552244627e-06
557,3.7666214969165906e-06
558,1.0267737771278848e-05
559,2.8838198577260916e-06
560,5.0379114321887245e-06
561,8.460087113383173e-06
562,9.117752387649363e-06
563,2.0627354491508544e-06
564,2.1368264946460166e-06
565,6.062786305555827e-07
566,9.141435820512745e-06
567,4.3553258362244965e-06
568,6.207346171212043e-07
569,1.426189586894715e-05
570,5.80247784207324e-06
571,1.3891942251345141e-05
572,5.645458771659639e-06
573,2.676043199395557e-06
574,1.3490247122987477e-05
575,3.6749996790948704e-06
576,5.2967529518505e-06
577,4.707185389112641e-06
578,9.126926174341946e-06
579,4.967390190235775e-06
580,3.2375494081342175e-06
581,4.3683070573666465e-06
582,3.8118878967588276e-06
583,5.801311160594387e-06
584,1.65538259338042e-05
585,3.5798043956026233e-06
586,1.923916683039036e-06
587,5.932652205788117e-07
588,1.2331528059444395e-05
589,4.299479125395903e-06
590,9.511437231476006e-07
591,1.346181536376469e-05
592,8.118224642495116e-06
593,7.741448893686698e-06
594,2.5809989122129405e-06
595,3.7531335429307067e-06
596,1.0555156100449095e-05
597,7.184242033345967e-06
598,9.06711096887871e-06
599,8.30198223431888e-06
600,2.1978513078227886e-05
601,3.924720060382874e-06
602,1.450007204672457e-06
603,8.738282361090228e-06
604,1.724984879653262e-05
605,3.682213554715454e-06
606,3.83862467176698e-06
607,1.5237159987941372e-05
608,8.636578556166596e-06
609,2.474500235856357e-06
610,9.985380242242222e-06
611,1.5402348803719644e-05
612,6.092436274535609e-06
613,8.760805331721208e-07
614,3.134019898442759e-06
615,8.874184674035645e-07
616,1.3385678566010925e-05
617,2.966253844775499e-06
618,2.332669047885484e-06
619,6.655236634185589e-06
620,1.5410691749991896e-05
621,1.0413070074212709e-05
622,1.935319800931119e-05
623,3.928415013035299e-07
624,2.117673997685209e-06
625,1.9014464313786842e-05
626,1.2267414442843077e-05
627,1.1858092546394212e-05
628,6.562718880942197e-06
629,1.939632997859381e-05
630,3.915838082745372e-06
631,1.9543530500036806e-05
632,1.17732124985363e-05
633,2.0607301956030822e-05
634,3.7909067614066227e-06
635,1.0405225717917814e-05
636,1.1196910724104392e-05
637,3.9656739386950025e-06
638,3.3133828544174926e-06
639,1.4034820574738304e-05
640,9.450770049749386e-06
641,9.311452232321475e-07
642,2.4202066778221426e-07
643,3.221425363661418e-06
644,1.0310062459103034e-05
645,8.553514900042755e-06
646,2.199991545753558e-06
647,8.179970062114794e-06
648,1.3279481378131454e-05
649,2.2605250547813903e-06
650,8.399060392334771e-06
651,1.916502822786203e-06
652,9.529459965222407e-06
653,3.128666132672907e-06
654,5.394455939493184e-06
655,8.90149499896713e-06
656,1.1201992495578522e-05
657,2.479161323020477e-06
658,1.0766535907262943e-06
659,1.997103079824038e-05
660,1.957703319976373e-05
661,6.484843551294738e-06
662,3.724400553421675e-06
663,2.753064513028005e-06
664,3.7516785762247045e-06
665,6.70998616072965e-06
666,5.361020589952712e-07
667,1.4165951971947062e-05
668,4.457331208204531e-06
669,6.365315039135624e-06
670,1.0568171246934946e-05
671,1.7776030750914073e-06
672,3.5634294411258666e-06
673,5.177533731665021e-06
674,1.0924294120268525e-06
675,1.0369922961464343e-05
676,8.322063644807045e-06
677,6.196906655234415e-06
678,5.232577983878904e-06
679,1.3035662884630687e-05
680,1.472555738947726e-06
681,1.1570347579683381e-05
682,1.1155805732411969e-05
683,3.534423340694688e-06
684,2.2723106278515395e-06
685,4.6599518589261966e-06
686,1.32117790728314e-05
687,1.0477323107574812e-05
688,7.0288227632484475e-06
689,9.318887518782465e-06
690,3.4302218131456537e-06
691,1.5025723007382323e-05
692,1.2465908162365393e-07
693,1.819402426710001e-05
694,1.1630385265398833e-05
695,3.5701324747152725e-06
696,7.93978731220153e-06
697,1.1010145777252126e-05
698,1.8583835391075368e-05
699,1.2846139427358331e-05
700,2.3645916477724403e-06
701,7.064704324363059e-06
702,3.751635030944658e-06
703,3.606336015023435e-06
704,5.2622777521439365e-06
705,4.089605354977037e-06
706,2.0487729085971028e-05
707,1.5179939344070392e-05
708,1.37995667844386e-05
709,1.1714970958276123e-06
710,1.972545102273142e-08
711,1.5194130047522354e-05
712,9.952446694631561e-06
713,1.4406457584531712e-05
714,1.487544575263852e-05
715,2.977439947160907e-06
716,6.276509862386456e-06
717,9.46098631173639e-06
718,1.383911676255702e-05
719,3.0043877890879856e-06
720,5.379656569234897e-06
721,3.7372319326377414e-07
722,1.0231812263831648e-05
723,5.306654523845837e-06
724,2.0917674248600425e-06
725,2.9752766920501603e-06
726,6.0932134218945784e-06
727,1.351154227484309e-06
728,1.4749342959576553e-05
729,5.618456651905758e-07
730,1.2838667957740996e-06
731,2.6491894039111014e-06
732,4.1736130400746406e-06
733,1.4582553493159676e-06
734,2.6290273160038724e-05
735,3.5015366114288106e-06
736,2.341536397516294e-06
737,1.687190982179885e-05
738,1.3354956682758742e-05
739,1.363835739033444e-05
740,6.456215280201481e-06
741,1.3509315291613132e-05
742,9.062260907041795e-06
743,2.6425459085062377e-05
744,8.027668504359653e-06
745,6.361849130487262e-06
746,1.8064888636853516e-05
747,2.075939864314455e-07
748,8.460719345811751e-07
749,9.789360535934971e-06
750,1.859996438935279e-06
751,1.5281732466557803e-05
752,2.956995908535106e-06
753,5.479663410614625e-06
754,1.3096724413234362e-06
755,1.1057768415393428e-05
756,7.1051164214393925e-06
757,1.59963580740851e-07
758,1.0774227144402351e-05
759,2.250941310632364e-05
760,7.378950935412175e-06
761,5.000264801182061e-06
762,2.5893301405361502e-06
763,7.46636430661228e-06
764,1.0340960534878984e-05
765,5.406461412965709e-06
766,9.41823460484027e-06
767,1.3957106151828332e-05
768,1.5528340713722563e-05
769,7.431470070105537e-06
770,1.0509744039698175e-05
771,8.522853866498897e-06
772,1.2620785472125504e-05
773,1.3775829133875702e-05
774,1.1403073075330025e-06
775,2.2033531335707444e-05
776,1.7758230496811764e-06
777,3.97249599703392e-06
778,2.0889372116284925e-06
779,3.0692254048619103e-06
780,2.3130931775844735e-06
781,1.9671960657617507e-06
782,3.427843818136978e-06
783,1.483977795611459e-05
784,2.2615007767630286e-06
785,1.8491988228849812e-05
786,6.692599435729912e-06
787,5.30957123602653e-06
788,1.2554887612699588e-05
789,2.7022606042018545e-06
790,6.422546378410724e-06
791,8.995897760893708e-08
792,2.435654940149406e-06
793,1.4658273926266655e-05
794,1.0384317684591889e-05
795,7.958267297830589e-06
796,1.0253208905540583e-05
797,1.3853276626927724e-06
798,2.1175410823273717e-06
799,4.791980158516099e-06
800,9.987917117311406e-06
801,2.1724768817762615e-06
802,2.735352559186022e-06
803,1.2536386518824283e-05
804,1.0424380069086716e-05
805,7.141136705507877e-06
806,7.558029509009806e-06
807,8.479603000220367e-06
808,3.905424557069316e-06
809,1.6559609284447394e-05
810,1.8358451887826289e-06
811,1.1548253960008276e-05
812,2.438249018014377e-06
813,5.958591562280884e-06
814,1.6800888253735866e-05
815,1.6110220192353608e-05
816,1.0300979994024828e-05
817,8.736850655649313e-06
818,1.529585898387338e-05
819,1.4633622407129013e-06
820,1.6056464336882583e-05
821,1.2153942486001937e-05
822,7.431865065540062e-07
823,1.8569581982532929e-06
824,1.3101338551637005e-05
825,1.1790454689866078e-05
826,1.2533647320916e-06
827,1.342805640696589e-05
828,7.135425006629399e-06
829,1.110557477513562e-06
830,1.6859959180711813e-06
831,2.323962621351429e-06
832,2.5999249463647806e-06
833,7.840875448647775e-06
834,1.0046034314410068e-06
835,8.142297598879202e-06
836,1.013317510182852e-05
837,1.2946710280279489e-05
838,5.903677816322117e-06
839,2.28660376216047e-06
840,1.3770060844214146e-05
841,8.766905673023655e-06
842,5.880207375598109e-07
843,3.828143759789116e-06
844,1.7997774614115337e-05
845,8.783142718063842e-06
846,2.1411612021892016e-07
847,1.1658098564894666e-05
848,8.571227228308038e-06
849,3.0524021431742495e-06
850,1.2484935451006681e-06
851,1.2832870949807192e-05
852,1.3484619234102004e-05
853,4.738785921312194e-06
854,2.524505879102751e-06
855,1.70162618730122e-06
856,2.7903632764995358e-06
857,1.9542628090089893e-06
858,1.705946740984405e-05
859,6.874122588482806e-06
860,1.3886711833823262e-05
861,2.111518573234978e-05
862,7.061856221056808e-07
863,8.86503234562019e-06
864,3.11418522899265e-06
865,3.227582667324796e-06
866,1.2297408502374701e-05
867,4.12371928766328e-06
868,1.345411768743088e-06
869,3.6467040341076506e-07
870,1.057898713387686e-05
871,1.84500312561197e-06
872,7.038491914675023e-07
873,6.29527832809128e-07
874,3.8477768593658046e-06
875,6.526821916763118e-06
876,1.281766420352694e-05
877,2.122633698340751e-05
878,1.3694080297092348e-05
879,1.605145053029657e-05
880,1.1857851077411859e-05
881,2.2562877740177994e-05
882,1.3728798537644816e-05
883,2.3547328921879303e-06
884,5.790047410534491e-06
885,9.545050414846227e-06
886,1.730393352320101e-05
887,1.1802999501994707e-05
888,9.8651238759909e-06
889,9.254769540369221e-07
890,5.336764941686093e-06
891,1.3077467434541675e-06
892,5.650872244452013e-06
893,1.365667638056019e-05
894,6.5824888784606756e-06
895,1.6204571481636605e-06
896,1.1986449433815222e-05
897,6.325970492709704e-06
898,8.198418051037262e-06
899,1.7862653816843444e-06
900,4.721461508309501e-06
901,8.073465654039915e-06
902,2.3954449686179224e-06
903,2.6040209441673868e-05
904,6.364257853401362e-06
905,1.6667901715259665e-06
906,1.5232844278595485e-06
907,7.015405646112215e-07
908,1.2308425797274982e-05
909,6.300496941543711e-06
910,4.387508343520529e-06
911,1.2949715497614723e-05
912,8.090433177523113e-06
913,4.198899798452629e-06
914,1.5581719356077156e-07
915,1.4378241963199977e-05
916,3.246615917110218e-05
917,8.134903993459669e-06
918,6.332176452852677e-07
919,6.1139086174418906e-06
920,3.5210317423826196e-06
921,5.223741000631065e-06
922,4.447950988745632e-06
923,1.5917364590194515e-05
924,3.018196386559932e-07
925,5.4351940709552735e-06
926,1.655536977695045e-07
927,7.178994702615563e-06
928,1.428910698646808e-05
929,6.6358320962564956e-06
930,1.6047175823630995e-05
931,1.8426821193092153e-05
932,6.16215112509078e-06
933,5.749475135182831e-06
934,2.0820239445135906e-06
935,8.84744108607726e-06
936,3.33435606250963e-06
937,5.3400404554148806e-06
938,1.448411912337444e-07
939,7.323839375009271e-06
940,1.8727111271761372e-05
941,5.619253466405233e-06
942,3.4105566190110795e-06
943,1.5524776920484858e-06
944,5.426662711395792e-06
945,8.147922960994458e-06
946,1.0073951437659606e-06
947,1.683724215082861e-05
948,9.621879061246507e-06
949,9.032909736540621e-07
950,2.3725531169650345e-05
951,1.8048952789190597e-05
952,3.983293453546377e-06
953,1.958809557100537e-05
954,1.161187375385632e-05
955,3.2595099799957022e-06
956,1.1659520148774109e-05
957,1.729980521239046e-06
958,2.962647040534012e-06
959,2.9750048867234615e-06
960,1.9277018429992787e-05
961,5.6765674136104645e-06
962,1.4728182893998977e-05
963,1.2551979049903667e-06
964,6.454711524188189e-06
965,1.1263637462871467e-05
966,7.961555932993927e-06
967,3.180659794765775e-05
968,1.4754993042613273e-05
969,2.033368261360551e-06
970,6.624173905272964e-06
971,7.0444523750438575e-06
972,2.567947170310621e-06
973,5.209900507416038e-06
974,1.1881529101225656e-05
975,1.4949748314267826e-05
976,3.253262527531759e-06
977,6.951560550010138e-06
978,1.329865276417336e-05
979,1.1985980453293467e-05
980,6.617849270461235e-06
981,8.446501597927946e-06
982,6.307323494780319e-06
983,1.7427265325673353e-05
984,5.078899330407271e-06
985,1.2802766116069896e-05
986,3.525903318645472e-06
987,1.6205358593626143e-06
988,1.0713635546594438e-05
989,1.5577438810081025e-05
990,6.141752779051682e-06
991,6.745389167490645e-06
992,1.0330152030303537e-05
993,4.2838860491971166e-07
994,8.840687780119156e-06
995,5.114035168101327e-06
996,1.8169315197566796e-05
997,1.3316326877773473e-05
998,2.0555948138091316e-05
999,4.971767678481615e-06
