,0,1,2,3
0,1.988428582680797e+30,116863.73848149888,136268518781437.88,0.0
1,1.988428582147714e+30,116880.49884903755,162818816450839.6,0.0
2,1.9884285826808487e+30,116863.7496291573,131706165133582.16,0.0
3,1.9884285824594227e+30,116870.18784609741,225356099330109.47,0.0
4,1.9884285825510766e+30,116867.47006254623,166213868102247.97,0.0
5,1.9884285824712925e+30,116869.99212691562,146767809803255.06,0.0
6,1.988428582679901e+30,116863.73014330787,148347367837038.78,0.0
7,1.9884285826808448e+30,116863.74305519165,134103690055337.39,0.0
8,1.9884285826808273e+30,116863.74333045453,134211067574029.25,0.0
9,1.9884285826496275e+30,116864.59038095309,143663175206695.06,0.0
10,1.988428582642468e+30,116864.72958959587,170798335779236.1,0.0
11,1.9884285826765264e+30,116863.77638453446,166343840303446.28,0.0
12,1.9884285826808327e+30,116863.74276903569,134359525762030.47,0.0
13,1.9884285826249886e+30,116865.33071978576,134803661208435.84,0.0
14,1.9884285826808346e+30,116863.74929195148,131825016047979.7,0.0
15,1.9884285826808118e+30,116863.72838749066,139890311511313.34,0.0
16,1.9884285826609625e+30,116864.2246383806,160340133837915.94,0.0
17,1.9884285823789187e+30,116872.88954803339,162534425352808.16,0.0
18,1.9884285757449835e+30,117165.77195394177,133751871993848.75,0.0
19,1.9884285826808448e+30,116863.74074429827,134977892556186.03,0.0
20,1.9884285826789673e+30,116863.73640915124,155727462047664.75,0.0
21,1.9884285807874265e+30,116929.54868254573,487578157577819.75,0.0
22,1.9884285812377068e+30,116912.84242319467,195742129318035.75,0.0
23,1.9884285825558656e+30,116867.22691423354,209587283246386.94,0.0
24,1.9884285826388456e+30,116864.85554298073,162095717556434.7,0.0
25,1.9884285782650425e+30,116569.77732851966,2.5183603833059823e+20,1.0
26,1.9884285826734138e+30,116863.83913346946,175901366500633.8,0.0
27,1.9884285826177718e+30,116865.40479046786,191646605107997.9,0.0
28,1.9884285826024084e+30,116865.93619755401,159248381475061.38,0.0
29,1.9884285826807772e+30,116863.74976171466,132306291780304.27,0.0
30,1.9884285823197003e+30,116874.53210288614,299526477281274.9,0.0
31,1.988428582471104e+30,116870.00020897282,145934054802920.1,0.0
32,1.9884285824364814e+30,116870.82926288364,269524444257499.25,0.0
33,1.988428582676395e+30,116863.84818503847,139336641285128.22,0.0
34,1.9884285826807218e+30,116863.71540157979,145716697190624.53,0.0
35,1.9884285826681e+30,116864.04210483473,152970029756537.5,0.0
36,1.9884285826807488e+30,116863.75075066966,132218928591267.03,0.0
37,1.9884285826807398e+30,116863.71933125204,144033332559758.5,0.0
38,1.9884285826804867e+30,116863.70992549419,150223234433154.03,0.0
39,1.9884285826523254e+30,116864.47858463053,157168548399324.8,0.0
40,1.9884285826570382e+30,116864.26170070536,192425380463987.66,0.0
41,1.9884285826734684e+30,116863.94277389949,133992125513313.34,0.0
42,1.9884285826808428e+30,116863.74832789377,132175068163381.36,0.0
43,1.9884285826752738e+30,116863.84098303411,153958358556529.38,0.0
44,1.9884285826806593e+30,116863.73903402871,137372527146387.83,0.0
45,1.9884285826806272e+30,116863.72415201282,143311139950881.25,0.0
46,1.9884285826791942e+30,116863.77512597138,138377907903278.33,0.0
47,1.9884285826804735e+30,116863.72580664622,144187968703715.16,0.0
48,1.9884285826798435e+30,116863.72238384021,152002106580980.94,0.0
49,1.9884285826746957e+30,116863.85120226647,156187749097906.06,0.0
50,1.9884285826432056e+30,116864.66011364032,191920528110570.44,0.0
51,1.9884285826804847e+30,116863.71514374654,148192755551468.1,0.0
52,1.988428581686559e+30,116896.41321089701,202293221307184.75,0.0
53,1.988428582674685e+30,116863.85563741748,154534035395118.56,0.0
54,1.9884285826807719e+30,116863.7198260435,143510192606370.88,0.0
55,1.988428582680804e+30,116863.73788790469,136407368036089.25,0.0
56,1.9884285826639169e+30,116864.07773509726,187486068211536.8,0.0
57,1.9884285821148357e+30,116881.32662757364,302939796157328.2,0.0
58,1.988428582404853e+30,116871.806391421,286377282672275.94,0.0
59,1.988428582677833e+30,116863.73694643099,168008851699824.78,0.0
60,1.9884285826251316e+30,116865.32073217542,136939144857833.83,0.0
61,1.9884285826783202e+30,116863.79849222825,138413024918327.12,0.0
62,1.9884285826807634e+30,116863.74153616386,135464824573138.67,0.0
63,1.9884285826808355e+30,116863.74917526732,131867404444587.0,0.0
64,1.988428582678614e+30,116863.78387454429,140939376018917.53,0.0
65,1.9884285826772804e+30,116863.8372590166,134459840888002.06,0.0
66,1.9884285826245624e+30,116865.14390967152,220426283293381.22,0.0
67,1.9884285826778102e+30,116863.75530412733,160666259337053.94,0.0
68,1.9884285826808479e+30,116863.74758056561,132455891693659.94,0.0
69,1.9884285826774116e+30,116863.74941213631,167575102750113.38,0.0
70,1.9884285826808428e+30,116863.73204334246,138261451673573.06,0.0
71,1.9884285826535088e+30,116864.34044953165,202590082941380.6,0.0
72,1.9884285811633008e+30,116915.77813441338,136685618477611.19,0.0
73,1.9884285815077376e+30,116902.8165886091,224242388259274.25,0.0
74,1.9884285826795362e+30,116863.726817768,153481674662543.88,0.0
75,1.988428582677931e+30,116863.75748869409,158459520048849.88,0.0
76,1.9884285820143084e+30,116884.75361879246,299081743371175.75,0.0
77,1.9884285826611452e+30,116864.1975231345,169438731215607.1,0.0
78,1.988428582530687e+30,116868.18113204201,132889613606701.11,0.0
79,1.988428582675575e+30,116863.8184802668,159692761141070.06,0.0
80,1.988428582680832e+30,116863.74149298995,134821133762160.61,0.0
81,1.9884285826726496e+30,116863.96110036566,135586611367034.31,0.0
82,1.9884285826807468e+30,116863.7307782981,139623843258490.9,0.0
83,1.9884285823040266e+30,116875.17223752812,228973772661882.25,0.0
84,1.9884285826804453e+30,116863.72374043202,145273970077693.66,0.0
85,1.9884285826786442e+30,116863.75054563931,153519166756955.53,0.0
86,1.9884285820629382e+30,116883.34663035734,170859993955219.2,0.0
87,1.988428582676364e+30,116863.86406208733,133765022392932.94,0.0
88,1.9884285826173265e+30,116865.43580807769,183645179665620.25,0.0
89,1.9884285826808433e+30,116863.74113816892,134822921459442.47,0.0
90,1.9884285826808442e+30,116863.74590097376,133068411852620.64,0.0
91,1.9884285819169068e+30,116888.00644623669,366909311420731.1,0.0
92,1.9884285823467756e+30,116873.83669982493,202144278097090.44,0.0
93,1.9884285826277026e+30,116865.13288658012,182526130489825.12,0.0
94,1.9884285826449452e+30,116864.68953140239,157727963980063.06,0.0
95,1.98842858267801e+30,116863.78711962969,145883362498211.75,0.0
96,1.988428582680255e+30,116863.74561186312,138863486658161.08,0.0
97,1.9884285826807947e+30,116863.74536098384,133753649160040.19,0.0
98,1.988428582614125e+30,116865.6479822006,136000262686342.45,0.0
99,1.988428582673602e+30,116863.89855898281,149339763170348.84,0.0
100,1.9884285826806868e+30,116863.71127703841,147650466469279.78,0.0
101,1.988428582645878e+30,116864.59883778288,184766276356293.38,0.0
102,1.988428582680849e+30,116863.74705291838,132648377389071.55,0.0
103,1.9884285826702002e+30,116863.98167365236,153698307494845.0,0.0
104,1.9884285808937627e+30,116925.96246726534,170982133258403.56,0.0
105,1.9884285647667985e+30,118294.76340172412,1145034140601312.0,0.0
106,1.9884285821899938e+30,116878.845989287,278377104915863.8,0.0
107,1.9884285826808284e+30,116863.74059655565,135181780895411.62,0.0
108,1.9884285826808245e+30,116863.75060568714,131608208591035.97,0.0
109,1.9884285826789378e+30,116863.77079705661,142594659080159.8,0.0
110,1.9884285826808394e+30,116863.74150477913,134741656989818.86,0.0
111,1.988428582680842e+30,116863.73394669393,137508135119835.52,0.0
112,1.9884285826756757e+30,116863.88302448977,133718073760243.2,0.0
113,1.988428582627126e+30,116865.1765669538,170966459579256.22,0.0
114,1.9884285826657405e+30,116864.06616219142,170195051741901.4,0.0
115,1.9884285826793372e+30,116863.72950411153,154507992590651.25,0.0
116,1.9884285826741116e+30,116863.83785165947,168267018444751.2,0.0
117,1.9884285826501938e+30,116864.53166797901,160427723929906.66,0.0
118,1.9884285826788984e+30,116863.73121120839,158549093520057.1,0.0
119,1.9884285826785254e+30,116863.78340955393,142005567790854.84,0.0
120,1.988428582328255e+30,116874.57756168414,142940128512762.47,0.0
121,1.9884285826706072e+30,116864.01366884554,137064196448056.34,0.0
122,1.9884285823403951e+30,116874.09446968544,179138557638610.84,0.0
123,1.9884285826790833e+30,116863.75725915015,146282103275908.28,0.0
124,1.988428582666652e+30,116864.04368972551,168881166059174.44,0.0
125,1.9884285826775965e+30,116863.81667909345,138904211241057.28,0.0
126,1.9884285729695888e+30,116460.44470804199,5.553255693348541e+20,1.0
127,1.9884285824071866e+30,116872.06299294598,131839027842154.97,0.0
128,1.9884285826806294e+30,116863.74733382129,134607839400989.22,0.0
129,1.9884285826792246e+30,116863.7337783972,154022882349785.66,0.0
130,1.9884285826755876e+30,116863.81249858123,161994819508131.38,0.0
131,1.9884285825555884e+30,116867.24126219745,206766272347654.34,0.0
132,1.988428582680621e+30,116863.73124797482,140675991533350.4,0.0
133,1.988428582571976e+30,116866.91984612487,132763006857169.19,0.0
134,1.9884285803384156e+30,116947.3265339245,495932933076017.75,0.0
135,1.98842858268084e+30,116863.74897447047,131940370015657.12,0.0
136,1.9884285826808296e+30,116863.73108611917,138692497890126.48,0.0
137,1.9884285825838944e+30,116866.52755765649,144858300731522.8,0.0
138,1.9884285826808479e+30,116863.74875817403,132040822012066.97,0.0
139,1.9884285826808414e+30,116863.74801291084,132289764797005.03,0.0
140,1.9884285826803496e+30,116863.73396212634,142335669761501.6,0.0
141,1.9884285826695357e+30,116864.00434904052,152061056617187.38,0.0
142,1.98842858267999e+30,116863.71971780555,151513644465992.84,0.0
143,1.9884285826019197e+30,116865.96559267714,153295171660005.06,0.0
144,1.9884285826807353e+30,116863.74985352797,132692664677790.42,0.0
145,1.9884285826788468e+30,116863.79008183393,136262138557090.11,0.0
146,1.9884285826597434e+30,116864.23666242359,169692573711233.97,0.0
147,1.9884285826807803e+30,116863.75234523484,131338228284072.03,0.0
148,1.9884285826808048e+30,116863.74040719961,135489063581914.0,0.0
149,1.9884285826808442e+30,116863.74685346505,132711855080166.94,0.0
150,1.9884285826784877e+30,116863.73009916954,163516788004617.94,0.0
151,1.98842858247254e+30,116869.93849603675,152419785585798.28,0.0
152,1.9884285825967932e+30,116866.03439218967,188988159647125.62,0.0
153,1.988428582493725e+30,116869.30535438459,140913960879720.28,0.0
154,1.988428582680318e+30,116863.74847371005,137193308076811.7,0.0
155,1.9884285826808414e+30,116863.75075326549,131295516829887.22,0.0
156,1.9884285826808436e+30,116863.74030718773,135158289343455.33,0.0
157,1.9884285826775264e+30,116863.76903067852,158205436322019.44,0.0
158,1.9884285826808343e+30,116863.73034278091,138935887014175.67,0.0
159,1.988428582680845e+30,116863.75014395213,131517036451336.44,0.0
160,1.988428582634113e+30,116865.04831788476,140463226810116.12,0.0
161,1.9884285825866565e+30,116866.37469178838,173107249765456.78,0.0
162,1.9884285826808403e+30,116863.75072848346,131304502786577.84,0.0
163,1.9884285826807006e+30,116863.74966572334,133070502692774.17,0.0
164,1.9884285826792862e+30,116863.72542705692,156695510267859.1,0.0
165,1.9884285826808253e+30,116863.73382403381,137710398467385.83,0.0
166,1.9884285824579143e+30,116870.25428853519,216019231846772.12,0.0
167,1.9884285826808417e+30,116863.74849021534,132123900486662.5,0.0
168,1.9884285826798036e+30,116863.73418183094,147777599701100.22,0.0
169,1.9884285826808186e+30,116863.74093780921,135142444113654.64,0.0
170,1.988428582680793e+30,116863.74860834212,132576983903672.58,0.0
171,1.9884285826808428e+30,116863.73666573575,136503642082785.62,0.0
172,1.9884285826623865e+30,116864.16910134332,166639841900516.0,0.0
173,1.9884285826805053e+30,116863.70891730356,150437388161610.84,0.0
174,1.9884285826808377e+30,116863.73202955927,138283788897857.38,0.0
175,1.988428582664885e+30,116864.06711648834,180118982672016.56,0.0
176,1.988428582680841e+30,116863.74791514309,132393185630397.45,0.0
177,1.988428582674621e+30,116863.88110219986,145254682699538.75,0.0
178,1.9884285826527206e+30,116864.43412946508,170874934982788.28,0.0
179,1.9884285821948064e+30,116878.65414960482,296463209873869.7,0.0
180,1.988428582677199e+30,116863.79053980218,153144056487524.88,0.0
181,1.9884285826807935e+30,116863.72551644838,141137934890275.84,0.0
182,1.9884285826426742e+30,116864.7104719242,176424234201229.75,0.0
183,1.9884285826794743e+30,116863.75462214122,143303445042297.38,0.0
184,1.988428582680845e+30,116863.74826350872,132215182874968.89,0.0
185,1.988428582680801e+30,116863.75102588955,131634316359123.22,0.0
186,1.9884285825357672e+30,116867.94270715005,164828081232631.56,0.0
187,1.9884285825843093e+30,116866.5049598294,148758255163715.4,0.0
188,1.9884285825210576e+30,116868.35407171186,182821618068954.47,0.0
189,1.9884285826808172e+30,116863.73734309539,136484273773042.16,0.0
190,1.9884285826803052e+30,116863.74419797062,138922354077697.81,0.0
191,1.9884285826786895e+30,116863.79142411094,137338885699667.78,0.0
192,1.988428582624092e+30,116865.17987148887,209667853334184.22,0.0
193,1.9884285825778922e+30,116866.60593820733,187505156822910.8,0.0
194,1.9884285826790847e+30,116863.75461276501,147284839875056.62,0.0
195,1.988428582680787e+30,116863.7395517585,135956079798270.67,0.0
196,1.9884285826808099e+30,116863.7367240788,136783574224563.3,0.0
197,1.9884285826805765e+30,116863.72202400945,144623868008174.1,0.0
198,1.9884285826807234e+30,116863.74870801966,133194825066918.31,0.0
199,1.9884285826504198e+30,116864.50747932965,167741182285164.9,0.0
200,1.988428582680844e+30,116863.74904903163,131913930298462.72,0.0
201,1.988428582678039e+30,116863.76364341007,154795778063688.4,0.0
202,1.9884285824859596e+30,116869.34327869385,231199692961001.8,0.0
203,1.988428582680846e+30,116863.74791277596,132326655715478.11,0.0
204,1.988428582680627e+30,116863.71780021916,145739796711540.53,0.0
205,1.9884285826769846e+30,116863.82324598775,142691392538501.16,0.0
206,1.9884285826808462e+30,116863.73787866732,136020237155663.84,0.0
207,1.9884285826797543e+30,116863.76757943982,135638392224746.62,0.0
208,1.9884285825579432e+30,116867.11777588069,232211895261617.28,0.0
209,1.9884285816772882e+30,116896.7716008845,189877048234861.7,0.0
210,1.988428582680679e+30,116863.7411232261,136418869420965.95,0.0
211,1.9884285824940177e+30,116869.29255360297,142311240264273.56,0.0
212,1.9884285826796868e+30,116863.75412482528,141331622858181.12,0.0
213,1.988428582663527e+30,116864.14390324878,163735437732615.66,0.0
214,1.9884285825206993e+30,116868.37091761683,180291290061574.3,0.0
215,1.9884285826808093e+30,116863.72249121167,142148273104084.75,0.0
216,1.9884285825982327e+30,116865.94633629409,209909404478118.84,0.0
217,1.988428582680475e+30,116863.73481435078,140779414381610.56,0.0
218,1.988428582661713e+30,116864.27030604843,134428724468797.45,0.0
219,1.9884285826800372e+30,116863.73382460605,145543305954070.56,0.0
220,1.9884285825704072e+30,116866.74038996115,231469759816472.06,0.0
221,1.9884285826808284e+30,116863.74510594925,133527468843747.73,0.0
222,1.9884285826713382e+30,116863.95526710626,151643054898989.1,0.0
223,1.9884285826808262e+30,116863.72740931023,140116318847942.9,0.0
224,1.9884285825781967e+30,116866.58908442249,190945466653087.56,0.0
225,1.9884285826779433e+30,116863.74698184888,162607847610125.38,0.0
226,1.9884285826786273e+30,116863.76940206539,146320879858821.88,0.0
227,1.988428582680817e+30,116863.74012657575,135488340556594.66,0.0
228,1.9884285826620732e+30,116864.21736119127,150676703847997.62,0.0
229,1.9884285819304465e+30,116887.98669538843,136163465849554.94,0.0
230,1.9884285826739382e+30,116863.9013399412,144688658083970.44,0.0
231,1.988428582680825e+30,116863.74115894672,135014037392043.83,0.0
232,1.988428582680846e+30,116863.74134185746,134746333564492.53,0.0
233,1.9884285826701642e+30,116863.99073473734,150527730822030.34,0.0
234,1.9884285826317178e+30,116865.03569381287,173672808588390.12,0.0
235,1.9884285826736756e+30,116863.87343795519,158541597788663.94,0.0
236,1.9884285826762395e+30,116863.82365604406,150373060571984.3,0.0
237,1.9884285825825695e+30,116866.59866936634,133173129977514.83,0.0
238,1.988428582621128e+30,116865.39417464497,154009078733869.62,0.0
239,1.9884285825389603e+30,116867.78813515276,189232240864852.0,0.0
240,1.9884285826808473e+30,116863.7442239392,133685327482920.4,0.0
241,1.9884285826808436e+30,116863.74256038292,134295214731332.97,0.0
242,1.9884285826438922e+30,116864.78607881592,132368212828734.55,0.0
243,1.988428582158846e+30,116880.06874158232,186991919543162.8,0.0
244,1.988428580200214e+30,116953.17138583738,326290835620350.75,0.0
245,1.988428582680583e+30,116863.72202423315,144561344277347.94,0.0
246,1.9884285826808304e+30,116863.74338556972,134137112840835.95,0.0
247,1.988428582680846e+30,116863.74123489467,134772382920827.31,0.0
248,1.9884285826714866e+30,116863.91442337148,166543662148838.28,0.0
249,1.9884285826732745e+30,116863.88694687092,157553263710852.3,0.0
250,1.988428582679958e+30,116863.73423997613,146185276112389.2,0.0
251,1.9884285826808186e+30,116863.73222223118,138380892943212.1,0.0
252,1.9884285825954196e+30,116866.11626116092,171170314306820.75,0.0
253,1.988428578629146e+30,117021.0776810674,239611555733175.75,0.0
254,1.9884285826808473e+30,116863.74834859092,132173514451126.47,0.0
255,1.9884285826808512e+30,116863.74733508579,132537800461101.05,0.0
256,1.9884285826808298e+30,116863.75048837956,131391399329242.05,0.0
257,1.9884285825496073e+30,116867.5424759827,154989602548265.4,0.0
258,1.9884285826510985e+30,116864.43252720688,191971623458417.75,0.0
259,1.9884285823492166e+30,116873.73731691408,211794341554259.06,0.0
260,1.988428582669882e+30,116863.9211013175,182837614900620.66,0.0
261,1.988428582469229e+30,116870.08028748375,137920033752374.19,0.0
262,1.988428582678651e+30,116863.74633569806,155155315973658.56,0.0
263,1.988428582680839e+30,116863.7357681835,136876180442240.7,0.0
264,1.9884285826288088e+30,116865.04654286,207215424538690.78,0.0
265,1.9884285826806815e+30,116859.61739466501,9559911125159090.0,1.0
266,1.9884285826516924e+30,116864.54691711481,137702533009922.7,0.0
267,1.9884285821852633e+30,116879.0337247965,261779211677758.12,0.0
268,1.9884285826807783e+30,116863.72275249865,142326319075760.22,0.0
269,1.9884285826798154e+30,116863.71099264792,156839368370138.53,0.0
270,1.98842858239448e+30,116872.24775606171,227377740767978.8,0.0
271,1.9884285826808479e+30,116863.74142725139,134714222266871.0,0.0
272,1.9884285826750773e+30,116863.81001057386,168831071634600.5,0.0
273,1.9884285826808462e+30,116863.73900561918,135615514618198.92,0.0
274,1.988428582680395e+30,116863.75869072946,132693410095285.97,0.0
275,1.9884285826181017e+30,116865.38155392274,197826566304307.28,0.0
276,1.988428582680817e+30,116863.74513523112,133628763364610.22,0.0
277,1.9884285826808377e+30,116863.73068611018,138781441798253.53,0.0
278,1.9884285826796448e+30,116863.76164778728,138933652269860.08,0.0
279,1.9884285826808442e+30,116863.74610193445,132986019142358.8,0.0
280,1.988428582676541e+30,116863.76805363786,169673017669768.66,0.0
281,1.9884285826764442e+30,116863.82158474247,148993441294804.7,0.0
282,1.98842858267993e+30,116863.73077146764,147803619959782.8,0.0
283,1.988428582443881e+30,116870.85562408317,147031782524453.28,0.0
284,1.9884285823387868e+30,116874.15899586648,173807842285035.88,0.0
285,1.9884285826563728e+30,116864.34814975313,163180497606753.1,0.0
286,1.9884285826799328e+30,116863.72455113681,150206172259865.0,0.0
287,1.9884285826807935e+30,116862.48965038385,1160017403816161.2,1.0
288,1.9884285826693445e+30,116864.04758271742,137530231147323.23,0.0
289,1.988428582648365e+30,116864.53853009018,179745400011738.75,0.0
290,1.9884285826808366e+30,116863.75067438255,131324129253593.72,0.0
291,1.9884285826318892e+30,116865.02211279744,177369564384559.75,0.0
292,1.9884285826805388e+30,116863.74060511363,137959656842943.19,0.0
293,1.9884285826731245e+30,116863.93521253526,140330104320697.56,0.0
294,1.988428582665169e+30,116864.16773085893,136317058595732.83,0.0
295,1.988428582680815e+30,116863.73938528384,135757480076226.38,0.0
296,1.988428582676594e+30,116863.8445994781,138648559388290.75,0.0
297,1.988428582665494e+30,116864.11142673877,154462174747139.97,0.0
298,1.9884285825596948e+30,116867.0238138819,253427108073259.06,0.0
299,1.9884285826808467e+30,116863.74414684054,133722695997228.98,0.0
300,1.988428582648863e+30,116864.48539383223,197170945021326.3,0.0
301,1.9884285826804301e+30,116863.75031728722,135418428346485.62,0.0
302,1.9884285826422768e+30,116864.74723418774,165728689146806.2,0.0
303,1.9884285826780097e+30,116863.78919822372,145109934222656.44,0.0
304,1.9884285815440512e+30,116901.39522056331,278038358664076.5,0.0
305,1.9884285826808425e+30,116863.74344653432,133999996255923.75,0.0
306,1.988428582680696e+30,116863.71372607978,146607926131510.28,0.0
307,1.9884285826804473e+30,116863.71020993013,150508161688966.0,0.0
308,1.9884285813395898e+30,116908.80833921918,325836005435056.0,0.0
309,1.9884285826527586e+30,116864.42975154716,172270508870379.38,0.0
310,1.9884285826808436e+30,116863.73886721375,135707115895725.84,0.0
311,1.988428582680794e+30,116863.74863961163,132573571591312.34,0.0
312,1.9884285826795092e+30,116863.76929023008,137401839075736.5,0.0
313,1.9884285826799125e+30,116863.70891283549,156659743285651.12,0.0
314,1.988428582680065e+30,116863.72029458435,150507179020416.1,0.0
315,1.9884285826796203e+30,116863.72903118777,151710673470929.94,0.0
316,1.9884285826757996e+30,116863.82470704953,154709821938230.78,0.0
317,1.9884285826807947e+30,116863.7379455581,136482178526066.84,0.0
318,1.98842858268084e+30,116863.74691234123,132690147348776.48,0.0
319,1.9884285825976996e+30,116865.97923441263,201872521258073.94,0.0
320,1.9884285826760912e+30,116863.79012367551,165546431482358.22,0.0
321,1.9884285826787039e+30,116863.77623041386,142909241893228.72,0.0
322,1.98842858265899e+30,116864.33933012527,137452453768862.36,0.0
323,1.9884285826808448e+30,116863.74692917483,132684545508908.81,0.0
324,1.9884285826708186e+30,116863.96055606028,155274864158945.5,0.0
325,1.988428582680769e+30,116863.7212697631,142998892253576.53,0.0
326,1.9884285826806058e+30,116863.71149763942,148383488793439.7,0.0
327,1.9884285826808127e+30,116863.72307384745,141885807561166.62,0.0
328,1.9884285826806567e+30,116863.7364141549,138385782164079.55,0.0
329,1.9884285826807583e+30,116863.73326925536,138590765968673.5,0.0
330,1.9884285826808512e+30,116863.74162857232,134635654998539.45,0.0
331,1.9884285826463323e+30,116864.55264132984,199810343928123.12,0.0
332,1.9884285826686673e+30,116864.0604855718,139753841119150.97,0.0
333,1.988428582680824e+30,116863.7497393323,131887667883515.78,0.0
334,1.9884285784208862e+30,117030.80255223374,157354077192704.5,0.0
335,1.9884285826806058e+30,116863.7117152286,148298997516831.66,0.0
336,1.9884285826767926e+30,116863.8360476139,139841888501037.56,0.0
337,1.9884285826794847e+30,116863.73325834128,151455547487510.94,0.0
338,1.9884285826625562e+30,116864.14203165851,176089859934365.12,0.0
339,1.9884285826805647e+30,116863.7205697444,145311239157095.1,0.0
340,1.9884285826808343e+30,116863.74998689162,131573043736152.77,0.0
341,1.9884285826808436e+30,116863.74558619951,133199351981763.6,0.0
342,1.988428582675786e+30,116863.83085971416,152403588589445.66,0.0
343,1.9884285826786022e+30,116863.79553428688,136693502200098.81,0.0
344,1.9884285826362248e+30,116864.87626731161,185864758832474.12,0.0
345,1.9884285826798092e+30,116863.72215635666,152436038267219.2,0.0
346,1.98842858268073e+30,116863.73469916728,138315595382377.52,0.0
347,1.9884285826779045e+30,116863.77803224484,150538829407186.25,0.0
348,1.988428582680845e+30,116863.74870649846,132037909964084.5,0.0
349,1.9884285826808403e+30,116863.748400708,132238201485070.5,0.0
350,1.9884285826743894e+30,116863.85380332636,158547594789719.0,0.0
351,1.9884285826732427e+30,116863.8969461309,153879219054104.75,0.0
352,1.9884285826808442e+30,116863.74837455229,132158148924521.42,0.0
353,1.9884285824671532e+30,116869.84073367769,280847328746300.8,0.0
354,1.9884285826509974e+30,116864.44401849485,188099473372184.2,0.0
355,1.988428582575973e+30,116866.7103947804,167384101227260.62,0.0
356,1.9884285825610907e+30,116867.22937624704,140561293226024.94,0.0
357,1.9884285826790847e+30,116863.75500610247,147135536301099.0,0.0
358,1.9884285826403084e+30,116864.7251682717,200630916192366.62,0.0
359,1.988428582322745e+30,116874.40583522742,315853430347618.7,0.0
360,1.9884285825447823e+30,116867.49557276335,244794583688604.03,0.0
361,1.988428582680837e+30,116863.74863840664,132062294478742.2,0.0
362,1.9884285803052683e+30,116948.72736900409,448051398943512.5,0.0
363,1.9884285826765638e+30,116863.86097549908,132908276235130.81,0.0
364,1.988428582667259e+30,116864.0709297019,150881140989539.3,0.0
365,1.9884285826807685e+30,116863.75070466599,132045995101634.33,0.0
366,1.9884285826739973e+30,116863.88051721241,152171473658573.34,0.0
367,1.9884285825793902e+30,116866.52250786392,205087611779493.5,0.0
368,1.988428580331927e+30,116947.60068214287,486146605304403.5,0.0
369,1.9884285826795396e+30,116863.72018196591,156092203275314.84,0.0
370,1.9884285826273763e+30,116865.157617963,175906589397215.12,0.0
371,1.9884285826791646e+30,116863.7331280631,154913530912825.16,0.0
372,1.9884285826776303e+30,116863.79269115234,147704398355851.78,0.0
373,1.9884285826803178e+30,116863.74406975803,138825026292634.31,0.0
374,1.9884285826165742e+30,116865.48727301222,170977627836264.22,0.0
375,1.988428582477636e+30,116869.71659862026,178147655959925.6,0.0
376,1.9884285826170029e+30,116865.45804007327,178081142780769.28,0.0
377,1.9884285826807178e+30,116863.74061912698,136232911610818.81,0.0
378,1.988428582680837e+30,116863.74906181604,131908561758945.86,0.0
379,1.9884285826808276e+30,116863.7511269287,131160312601821.4,0.0
380,1.9884285821624624e+30,116879.92825154962,195677120454832.2,0.0
381,1.9884285826795604e+30,116863.76041978819,140223958861146.9,0.0
382,1.9884285826756645e+30,116863.88757465186,132160885075750.44,0.0
383,1.9884285826271146e+30,116865.17729886223,170777911423707.06,0.0
384,1.9884285826802883e+30,116863.75242299776,136032338973009.12,0.0
385,1.9884285826660195e+30,116864.0127217747,190129937343871.06,0.0
386,1.98842858249255e+30,116869.35669572443,135442247456529.9,0.0
387,1.9884285826808186e+30,116863.74359234434,134163906334230.22,0.0
388,1.9884285826796443e+30,116863.76031126539,139427313354830.69,0.0
389,1.9884285826806998e+30,116863.7331174247,139208082107429.9,0.0
390,1.988428582622273e+30,116865.31375362077,173272536363644.0,0.0
391,1.9884285826187854e+30,116865.33265801526,211364460349822.03,0.0
392,1.988428580716771e+30,116932.4582820353,376499296086709.0,0.0
393,1.9884285826416764e+30,116864.80105479775,150975846208319.47,0.0
394,1.988428582656056e+30,116864.38712214075,151102716474749.38,0.0
395,1.9884285826770918e+30,116863.75717637475,167964526042775.88,0.0
396,1.988428582680829e+30,116863.74385314323,133985846013756.31,0.0
397,1.9884285826654576e+30,116864.11762804164,152387178501370.72,0.0
398,1.9884285826797594e+30,116863.75631257982,139778807031703.45,0.0
399,1.988428582680252e+30,116863.76126882674,133118530494470.67,0.0
400,1.9884285823127824e+30,116874.81659102446,265792362615458.94,0.0
401,1.9884285826808281e+30,116863.74698930151,132844524569439.94,0.0
402,1.9884285785761385e+30,117023.54370187505,215126540675327.25,0.0
403,1.988428582680846e+30,116863.74056412722,135052275263635.36,0.0
404,1.9884285826808448e+30,116863.73577632105,136814014179100.53,0.0
405,1.9884285811084174e+30,116917.31663762563,423316487585501.25,0.0
406,1.9884285826799077e+30,116863.7125940767,155198726768079.38,0.0
407,1.988428582086731e+30,116882.42799002348,221268585577437.62,0.0
408,1.98842858267761e+30,116863.8079689868,142060857302983.0,0.0
409,1.9884285826787866e+30,116863.77414608256,142867668831482.94,0.0
410,1.988428582678186e+30,116863.73352421889,165475195441628.3,0.0
411,1.9884285826805695e+30,116863.73806281923,138633545811895.69,0.0
412,1.9884285826798694e+30,116863.72890026793,149141753136623.78,0.0
413,1.9884285826808476e+30,116863.74943111336,131775092461493.39,0.0
414,1.9884285826420263e+30,116864.76986886894,159395186610728.22,0.0
415,1.9884285826808403e+30,116863.74671026072,132764057458566.08,0.0
416,1.9884285826808014e+30,116863.73222972993,138536256555881.66,0.0
417,1.988428582675561e+30,116863.82485663019,157261660490560.88,0.0
418,1.9884285826807865e+30,116863.74442873095,134180771426789.78,0.0
419,1.9884285826777024e+30,116863.73855087537,168813648514130.2,0.0
420,1.988428582292067e+30,116875.6507682043,187474762025890.2,0.0
421,1.9884285822053024e+30,116878.23270327495,340571245348919.4,0.0
422,1.9884285826789107e+30,116851.29904115174,1.093435481279662e+17,1.0
423,1.988428582624368e+30,116865.15881585024,215914461967390.6,0.0
424,1.9884285826808377e+30,116863.74790497583,132329025464964.56,0.0
425,1.9884285826807522e+30,116863.72054222741,143441886499123.5,0.0
426,1.9884285826808433e+30,116863.74929600552,131823563566312.6,0.0
427,1.9884285826783365e+30,116863.78303121909,144083819349951.7,0.0
428,1.9884285817942566e+30,116892.75105458197,135669761312469.75,0.0
429,1.9884285826702703e+30,116863.964543384,159812210773019.2,0.0
430,1.9884285826808456e+30,116863.75105085265,131235891281385.83,0.0
431,1.988428582680527e+30,116863.75854232514,131465382183664.55,0.0
432,1.9884285826807637e+30,116863.73289116513,138630331232256.88,0.0
433,1.9884285826780888e+30,116863.81647360619,134068879065270.66,0.0
434,1.988428582657498e+30,116864.37241924448,140945788740575.3,0.0
435,1.9884285826734287e+30,116863.83408777745,177913803487406.56,0.0
436,1.9884285826546406e+30,116864.38723785678,167482924656920.7,0.0
437,1.9884285822377815e+30,116877.39954349211,205104881824248.75,0.0
438,1.98842858231587e+30,116874.69002091984,280299030148618.62,0.0
439,1.9884285826808248e+30,116863.73988250601,135484158745113.19,0.0
440,1.988428582679119e+30,116863.79271177108,132626013167468.95,0.0
441,1.9884285825731153e+30,116866.86125096126,141729940080240.12,0.0
442,1.9884285826792966e+30,116863.79086329734,131579995277009.81,0.0
443,1.9884285823698293e+30,116873.25488005865,134312500650051.16,0.0
444,1.988428582680425e+30,116863.72353313823,145568295894759.8,0.0
445,1.9884285826808388e+30,116863.75009738332,131533003721022.86,0.0
446,1.988428582676226e+30,116863.83033720378,147901129353427.6,0.0
447,1.988428582680112e+30,116863.71475277927,152198193426137.28,0.0
448,1.9884285826723543e+30,116863.92516711562,152426471536701.34,0.0
449,1.9884285826787942e+30,116863.7650823786,146258272797441.38,0.0
450,1.9884285826806967e+30,116863.73109511002,139995551601269.95,0.0
451,1.9884285826796443e+30,116863.75973897541,139639021208184.86,0.0
452,1.9884285826808453e+30,116863.74888320746,131992524651892.75,0.0
453,1.9884285800392438e+30,116960.00062048902,203303081871958.12,0.0
454,1.9884285826806097e+30,116863.7454857554,135481909102976.19,0.0
455,1.9884285826787334e+30,116863.74355960322,155350826892293.9,0.0
456,1.988428582677199e+30,116863.79055912633,153136706962877.4,0.0
457,1.988428582675537e+30,116863.83602890238,153058632228728.1,0.0
458,1.9884285826808372e+30,116863.73372401437,137648810855912.98,0.0
459,1.9884285826366433e+30,116864.84012887116,196714308690425.62,0.0
460,1.988428582672712e+30,116863.94213942227,142022792300324.25,0.0
461,1.9884285826790062e+30,116863.77198163999,141450495234144.0,0.0
462,1.9884285825190242e+30,116868.44914191052,168968737142775.47,0.0
463,1.9884285826808484e+30,116863.74632743293,132938867075558.44,0.0
464,1.988428582669818e+30,116863.93700347331,176667457614469.25,0.0
465,1.988428582680691e+30,116863.71235518703,147200357452774.84,0.0
466,1.9884275658192174e+30,114891.54670220369,5.844365870097328e+22,0.0
467,1.9884285726976448e+30,117352.10273080374,507611319062875.0,0.0
468,1.9884285826808352e+30,116863.73386948644,137626779487508.28,0.0
469,1.9884285826807482e+30,116863.75255742842,131547475814012.73,0.0
470,1.988428582679958e+30,116863.73222007883,146957973445014.25,0.0
471,1.9884285826768318e+30,116863.81260023027,148392063274688.97,0.0
472,1.988428582636538e+30,116864.84924940026,193930871277723.12,0.0
473,1.9884285826807795e+30,116863.73518353645,137644221695909.4,0.0
474,1.988428582680765e+30,116863.71639614664,144888299926364.22,0.0
475,1.9884285826742976e+30,116863.88816934035,145948218933116.5,0.0
476,1.988428582675925e+30,116863.87301212644,134875934555934.75,0.0
477,1.9884285826792342e+30,116863.71709836158,160625615316162.3,0.0
478,1.9884285826625706e+30,116864.1396550796,176936848931115.2,0.0
479,1.9884285826782014e+30,116863.81285404904,134284443029218.1,0.0
480,1.988428582680609e+30,116863.75345088822,132572007011744.64,0.0
481,1.9884285825774683e+30,116866.62924500664,182838186681238.0,0.0
482,1.9884285821442147e+30,116880.633419763,155945786035408.25,0.0
483,1.9884285826142588e+30,116865.63938909091,137704699574623.92,0.0
484,1.9884285826807823e+30,116863.7432240244,134651960855321.56,0.0
485,1.9884285826808456e+30,116863.75064077512,131374173466370.08,0.0
486,1.9884285822074418e+30,116878.57870877102,133138613116346.62,0.0
487,1.9884285826793299e+30,116863.74120285241,149962786041203.06,0.0
488,1.988428582680846e+30,116863.74841457902,132156965508194.22,0.0
489,1.9884285826805427e+30,116863.72696757101,143081209040203.12,0.0
490,1.988428582672675e+30,116863.95331096252,138207247357699.92,0.0
491,1.9884285825382093e+30,116867.82481054227,183155412543416.78,0.0
492,1.988428577066316e+30,117095.05408695409,941724070912761.0,0.0
493,1.9884285826332347e+30,116864.9117130339,209782576762563.75,0.0
494,1.9884285826808405e+30,116863.73734250343,136305709294583.36,0.0
495,1.9884285826657737e+30,116864.05993358762,172441832558824.5,0.0
496,1.988428582675545e+30,116863.83218144214,154497939525489.22,0.0
497,1.988428582665844e+30,116864.0466426631,177303291779488.8,0.0
498,1.988428582622749e+30,116865.27947747771,182059942657366.94,0.0
499,1.9884285826302817e+30,116865.14624759789,145806898413356.56,0.0
500,1.9884285826805478e+30,116863.71926030409,145952746737699.88,0.0
501,1.9884285826770555e+30,116863.77960328417,159097469099991.16,0.0
502,1.988428582587461e+30,116866.32895802104,182451679246243.22,0.0
503,1.9884285826808456e+30,116863.74160419755,134667677371015.67,0.0
504,1.9884285826808453e+30,116863.74271783273,134225676389255.3,0.0
505,1.98842858268082e+30,116863.7267858317,140431091545666.47,0.0
506,1.9884285826753692e+30,116863.7982786895,170423222688639.56,0.0
507,1.9884285826478688e+30,116864.58972008603,164068568359592.3,0.0
508,1.9884285826692804e+30,116864.0612649429,133132270275756.53,0.0
509,1.9884285826419528e+30,116864.77647699397,157581708142522.72,0.0
510,1.9884285826806708e+30,116863.7505709579,133022507501744.17,0.0
511,1.9884285826208565e+30,116865.41277085421,149815315766320.9,0.0
512,1.9884285825136745e+30,116868.69346242625,137792386258863.53,0.0
513,1.9884285826775462e+30,116863.75542208493,163560830122786.38,0.0
514,1.988428582508321e+30,116868.64125946337,233922590629755.94,0.0
515,1.9884285826802618e+30,116863.72142588551,148027720207535.44,0.0
516,1.9884285826802472e+30,116863.72176940856,148066633432117.06,0.0
517,1.9884285826804797e+30,116863.7481831659,135720565821739.61,0.0
518,1.988428582449851e+30,116870.60335067727,172838171908123.53,0.0
519,1.9884285826795038e+30,116863.7803949205,133375088248898.39,0.0
520,1.9884285826808355e+30,116863.73852115928,135903389073525.4,0.0
521,1.9884285826808034e+30,116863.73078894937,139056069414486.0,0.0
522,1.9884285826808456e+30,116863.75071459798,131328375879003.84,0.0
523,1.988428582503848e+30,116868.85039449898,199665906836372.53,0.0
524,1.9884285826805903e+30,116863.72281804513,144197551523768.8,0.0
525,1.9884285826268818e+30,116865.19462195873,166363981681072.62,0.0
526,1.9884285826808056e+30,116863.75200017233,131244169780338.36,0.0
527,1.9884285826808287e+30,116863.74652631006,133006791976879.88,0.0
528,1.9884285813712154e+30,116907.55052493175,383430945577410.25,0.0
529,1.9884285826779672e+30,116863.8214877788,133419287688287.5,0.0
530,1.988428582680846e+30,116863.7457425502,133118268229529.44,0.0
531,1.988428582443398e+30,116870.87584861348,145136176986823.88,0.0
532,1.9884285826808146e+30,116863.73897800226,135907855400072.47,0.0
533,1.9884285826807958e+30,116863.72710249464,140531624137000.64,0.0
534,1.9884285826806207e+30,116863.72237874415,144036265576243.44,0.0
535,1.9884285826806798e+30,116863.71934951299,144608776337041.3,0.0
536,1.9884285826762908e+30,116863.79655832966,160664157701856.38,0.0
537,1.988428582562642e+30,116867.15138157936,152443051839232.56,0.0
538,1.9884285826808462e+30,116863.74654752034,132823160757216.56,0.0
539,1.988428582680757e+30,116863.71973863084,143699024121348.8,0.0
540,1.9884285826236716e+30,116865.21151924288,200553015128866.72,0.0
541,1.9884285826808357e+30,116863.75021059258,131491994586147.5,0.0
542,1.988428582668923e+30,116864.00490650178,158660338484443.62,0.0
543,1.9884285826794422e+30,116863.72512893245,155138822004688.03,0.0
544,1.9884285826795837e+30,116863.719077153,156061176770297.28,0.0
545,1.9884285826783078e+30,116849.72119430592,1.4455163383077766e+17,1.0
546,1.9884285826798756e+30,116863.72087045606,152262302671494.16,0.0
547,1.9884285826808028e+30,116863.72955904342,139542649372793.34,0.0
548,1.9884285826802264e+30,116863.7316288665,144464201491563.38,0.0
549,1.9884285826796505e+30,116863.74800155504,144024208152064.56,0.0
550,1.988428582680136e+30,116863.71378185097,152354624019416.12,0.0
551,1.9884285823535417e+30,116873.56015786293,230165501846456.75,0.0
552,1.988428582655979e+30,116864.39664243543,148253410281809.94,0.0
553,1.9884285826796513e+30,116863.74795711969,144040966246582.47,0.0
554,1.988428582667034e+30,116864.11397322571,136831103359305.94,0.0
555,1.988428582652176e+30,116864.49500587037,152316151923159.44,0.0
556,1.9884285826806393e+30,116863.72371687245,143336283432721.7,0.0
557,1.988428582660199e+30,116864.17015307768,193222966920753.62,0.0
558,1.9884285826807786e+30,116863.72831137416,140248129215215.53,0.0
559,1.9884285825830226e+30,116866.57453036842,137041677167212.66,0.0
560,1.9884285826804743e+30,116863.72330818383,145142110226543.8,0.0
561,1.988428582673958e+30,116863.89483936268,146998755299837.25,0.0
562,1.9884285826754357e+30,116863.88115319343,136807231901410.9,0.0
563,1.988428582608591e+30,116865.78231771091,147281965709362.03,0.0
564,1.9884285826778136e+30,116863.75346080099,161394395159325.9,0.0
565,1.9884285822257343e+30,116877.87163892819,172372771035890.9,0.0
566,1.988428582661117e+30,116864.20165299095,168030183471839.62,0.0
567,1.9884285826783073e+30,116863.80996875478,134294001188650.25,0.0
568,1.9884285826519004e+30,116864.52486796625,143776516058694.0,0.0
569,1.9884285826779574e+30,116863.73470898085,167537520639546.2,0.0
570,1.988428582379873e+30,116872.85082073572,165858086679426.03,0.0
571,1.9884285826795263e+30,116863.7435700352,147009999987575.66,0.0
572,1.988428582680599e+30,116863.71037303738,148876945136209.47,0.0
573,1.9884285826808467e+30,116863.74909927616,131895539109107.66,0.0
574,1.9884285826808428e+30,116863.74883781448,131992463466253.58,0.0
575,1.9884285826808425e+30,116863.74863103144,132064930381125.34,0.0
576,1.988428582680805e+30,116863.75102904471,131195715151261.5,0.0
577,1.9884285825706588e+30,116866.72644730512,234698595039766.6,0.0
578,1.9884285826803803e+30,116863.70518795661,153184008961809.88,0.0
579,1.9884285826808048e+30,116863.73939649484,135837944594759.98,0.0
580,1.9884285826635112e+30,116864.14657508655,162822489812608.78,0.0
581,1.9884285826781755e+30,116863.74154773384,162258299167319.34,0.0
582,1.988428581927594e+30,116888.0950873998,132701015468559.44,0.0
583,1.9884285826302696e+30,116865.14718874654,145586128425908.3,0.0
584,1.9884285826806314e+30,116863.73087705806,140718735161486.3,0.0
585,1.9884285826808422e+30,116863.7503856104,131428701362090.75,0.0
586,1.988428582680733e+30,116863.75115678774,132239640198809.42,0.0
587,1.98842858268042e+30,116863.74783351,136437613658635.34,0.0
588,1.9884285826013331e+30,116866.00044617288,146485556679235.28,0.0
589,1.9884285826807122e+30,116863.7352796175,138264072427918.19,0.0
590,1.9884285826808456e+30,116863.75039454694,131436167647382.0,0.0
591,1.988428581849454e+30,116890.63462370759,209880970061300.25,0.0
592,1.9884285826728863e+30,116863.88789315848,161520533190998.1,0.0
593,1.9884285826807702e+30,116863.74221846243,135146382473377.97,0.0
594,1.988428582317897e+30,116874.6065336191,290303552985398.6,0.0
595,1.988428582677237e+30,116863.76635074409,162516624890662.7,0.0
596,1.9884285826793068e+30,116863.77612782469,136882020379973.62,0.0
597,1.9884285826645893e+30,116864.1194809293,161470795010345.4,0.0
598,1.9884285826690343e+30,116863.98010244376,167620919645586.38,0.0
599,1.9884285826705988e+30,116864.01561106922,136426441285980.19,0.0
600,1.9884285826804147e+30,116863.72243840438,146101122301998.12,0.0
601,1.988428582139482e+30,116880.81497507077,147151354713918.8,0.0
602,1.988428582680779e+30,116860.84239777968,4765673383419436.0,1.0
603,1.9884285824926872e+30,116869.35074813759,136065394137054.84,0.0
604,1.9884285826808388e+30,116863.7375738995,136196281067836.17,0.0
605,1.9884285826808304e+30,116863.75000182036,131567633940741.33,0.0
606,1.9884285826808422e+30,116863.74937767287,131794763130700.28,0.0
607,1.9884285825655208e+30,116867.00327196864,177558582210548.7,0.0
608,1.9884285826111062e+30,116865.62166012792,182888852476356.62,0.0
609,1.9884285826078802e+30,116865.82605538923,138675617222031.36,0.0
610,1.988428582679131e+30,116863.77823867285,137845956927732.1,0.0
611,1.9884285825351418e+30,116867.97258721011,160463068860773.22,0.0
612,1.9884285826806804e+30,116863.71692018582,145540375475990.25,0.0
613,1.9884285826808433e+30,116863.74601705925,133016793213529.89,0.0
614,1.9884285826808417e+30,116863.74623995279,133003928546665.52,0.0
615,1.9884285826600145e+30,116864.19749253079,183290455844858.25,0.0
616,1.9884285826782093e+30,116863.80434035957,137328644622931.66,0.0
617,1.9884285826791686e+30,116863.72834954593,156793076321818.38,0.0
618,1.9884285823288153e+30,116874.55546123296,144420392611198.56,0.0
619,1.9884285826293576e+30,116865.00240387362,220822587418399.84,0.0
620,1.9884285826773348e+30,116863.80254266805,147006745384587.12,0.0
621,1.988428582680746e+30,116863.73766296748,137038360755284.2,0.0
622,1.9884285826792868e+30,116863.72449619268,157063628969793.5,0.0
623,1.98842858268079e+30,116863.7210800743,142890135091036.38,0.0
624,1.9884285826807476e+30,116863.73802947947,136920125560261.3,0.0
625,1.9884285826221285e+30,116865.32401642921,170709826882053.1,0.0
626,1.988428582680799e+30,116863.75173458522,131391202952844.0,0.0
627,1.9884285825546415e+30,116867.29017166232,197407159445163.47,0.0
628,1.9884285826808476e+30,116863.73763121404,136123852197407.33,0.0
629,1.988428582254683e+30,116876.72721377375,263163060688257.75,0.0
630,1.988428582680582e+30,116863.72520042732,143350412672007.88,0.0
631,1.9884285826635504e+30,116864.14007853127,165048456811250.44,0.0
632,1.9884285825931096e+30,116866.2496182447,145259017711502.97,0.0
633,1.9884285826807662e+30,116863.73075836964,139415077564570.22,0.0
634,1.9884285826632596e+30,116864.18713552011,149391980828028.03,0.0
635,1.9884285826808222e+30,116863.72659529396,140460360793483.72,0.0
636,1.9884285826808436e+30,116863.74370044626,133898748887416.22,0.0
637,1.988428582070505e+30,116883.05567092492,185371594755740.0,0.0
638,1.9884285826808383e+30,116863.73567873103,136905811322597.84,0.0
639,1.9884285826754033e+30,116863.89470268623,132150994857029.45,0.0
640,1.988428582607547e+30,116865.84629691015,134840364360214.36,0.0
641,1.9884285826787438e+30,116863.73282216676,159579531501485.28,0.0
642,1.9884285824255712e+30,116871.30091484917,205173289789521.4,0.0
643,1.988428582680706e+30,116863.74861008167,133400921922966.81,0.0
644,1.9884285826807018e+30,116863.72370381688,142728162915733.28,0.0
645,1.988428582679167e+30,116863.72913195018,156484384029919.47,0.0
646,1.9884285826807628e+30,116863.72067689108,143280361583619.7,0.0
647,1.988428582680664e+30,116863.74290542644,135902825760304.06,0.0
648,1.98842858266792e+30,116864.07860048793,140780361761795.3,0.0
649,1.9884285826808498e+30,116863.74833103258,132180215357816.67,0.0
650,1.9884285826808394e+30,116863.74835674367,132164583938631.22,0.0
651,1.9884285826808343e+30,116863.74917650822,131866902932796.61,0.0
652,1.9884285826795761e+30,116863.73560997003,149604221136778.5,0.0
653,1.988428582651029e+30,116864.44049546645,189280456027962.0,0.0
654,1.9884285826743165e+30,116863.88155167033,148322744960313.53,0.0
655,1.9884285826808096e+30,116863.73765213307,136444814112806.11,0.0
656,1.9884285826717182e+30,116863.98004181933,138102443602982.08,0.0
657,1.988428582484038e+30,116869.43075348689,217551321867831.47,0.0
658,1.988428582680831e+30,116863.75046119251,131401231846475.03,0.0
659,1.9884285824879925e+30,116869.24977116047,246693307401271.1,0.0
660,1.9884285824475209e+30,116870.70241625412,162210399082185.6,0.0
661,1.9884285826642284e+30,116864.17998589293,141625791274921.62,0.0
662,1.9884285826778501e+30,116863.82082266151,134838411827908.55,0.0
663,1.988428582680849e+30,116863.74154810044,134668361478895.52,0.0
664,1.988428582644253e+30,116864.75373733009,140486113860717.11,0.0
665,1.9884285826808442e+30,116863.74447641012,133579944787811.95,0.0
666,1.9884285826364227e+30,116864.85927155994,190907654358141.88,0.0
667,1.988428582680702e+30,116863.75086482911,132606792938620.98,0.0
668,1.9884285826501575e+30,116864.53564946093,159246993018809.4,0.0
669,1.9884285826768982e+30,116863.77222587587,163865145262477.12,0.0
670,1.9884285826692072e+30,116863.93950721184,183000515035299.7,0.0
671,1.9884285826806866e+30,116863.7126832804,147106025485926.06,0.0
672,1.988409870698051e+30,108452.17599582183,1.311232337733786e+24,0.0
673,1.9884285802196968e+30,116952.34661297768,345875528335450.25,0.0
674,1.9884285826808355e+30,116863.74939336703,131788226978823.64,0.0
675,1.9884285826807358e+30,116863.73842276937,136869020150094.61,0.0
676,1.9884285825050808e+30,116868.79333437551,208508583276674.4,0.0
677,1.98842858268085e+30,116863.75070618094,131314262025033.6,0.0
678,1.988428582661196e+30,116864.18990084941,172060075124282.44,0.0
679,1.988428582666133e+30,116864.140827732,136251831662062.31,0.0
680,1.9884285826806472e+30,116863.74608851,134889433382614.78,0.0
681,1.988428582646832e+30,116864.69102401199,136094047400764.48,0.0
682,1.988428582676109e+30,116863.78140374534,169004903304639.7,0.0
683,1.9884285826808338e+30,116863.73842993735,135932592993438.5,0.0
684,1.988428582671562e+30,116863.89332043353,174602997426227.44,0.0
685,1.9884285826792876e+30,116863.72196761867,158066235469467.3,0.0
686,1.9884285826128117e+30,116865.5070507888,212475453870737.22,0.0
687,1.9884285826808352e+30,116863.73149113443,138477325100791.78,0.0
688,1.988428581936239e+30,116887.76636069933,143501335188757.44,0.0
689,1.988428068265954e+30,114882.81366189009,3.0584684869623986e+22,1.0
690,1.9884285776696495e+30,117066.02838958958,294632651085790.75,0.0
691,1.9884285826806173e+30,116863.75690785568,131221483743691.31,0.0
692,1.9884285822796697e+30,116876.13912254004,153027043279253.66,0.0
693,1.9884285826799027e+30,116863.72623660635,149856373457687.44,0.0
694,1.9884285826797988e+30,116863.74497399805,143671351564807.8,0.0
695,1.9884285826787604e+30,116863.8016255832,132884088081538.98,0.0
696,1.9884285824956863e+30,116869.21904083813,150598989644224.03,0.0
697,1.988428582680634e+30,116863.74995417582,133604441878919.1,0.0
698,1.9884285826436895e+30,116864.61290809645,207363988943047.8,0.0
699,1.9884285826806959e+30,116863.73994786189,136695650905624.53,0.0
700,1.9884285826807353e+30,116863.75403425179,131137953091776.53,0.0
701,1.9884285826808436e+30,116863.74441158459,133641860207362.4,0.0
702,1.988428582680843e+30,116863.74802999041,132283633387885.31,0.0
703,1.988428582680834e+30,116863.7509425903,131226998224728.5,0.0
704,1.9884285826703266e+30,116863.95060990906,164901737413144.66,0.0
705,1.9884285826808433e+30,116863.74119846003,134815674017291.92,0.0
706,1.9884285826732534e+30,116863.8939865902,154960833216015.8,0.0
707,1.9884285826808386e+30,116863.74049284967,135123054454054.14,0.0
708,1.9884285826762395e+30,116863.82373158775,150344966626997.78,0.0
709,1.9884285826808343e+30,116863.7424673506,134427219227452.25,0.0
710,1.9884285826793507e+30,116863.78946740276,131558600356340.38,0.0
711,1.9884285826748288e+30,116863.9123500131,131463646575511.03,0.0
712,1.988428581943104e+30,116887.5046992264,152765117350789.44,0.0
713,1.9884285826803474e+30,116863.74140486243,139541950157220.5,0.0
714,1.9884285826808445e+30,116863.74783747717,132362708874768.25,0.0
715,1.9884285826802503e+30,116863.70727772066,153727580971374.03,0.0
716,1.988428582669357e+30,116864.04473083667,138458966566551.66,0.0
717,1.9884285826802613e+30,116863.72151432165,147993565704404.38,0.0
718,1.9884285826806294e+30,116863.73537592219,139031954332632.81,0.0
719,1.9884285826798343e+30,116863.74168262075,144578641020947.47,0.0
720,1.9884285826748068e+30,116863.80582772881,173755729433903.44,0.0
721,1.98842858267851e+30,116863.79858714573,136474542439446.38,0.0
722,1.988428582680671e+30,116863.72927448961,140910059724016.7,0.0
723,1.9884285713281227e+30,117450.31989205793,2239232499868008.0,0.0
724,1.9884285826806964e+30,116863.74947273673,133168990806082.11,0.0
725,1.9884285806629248e+30,116934.67459187015,310212567982691.4,0.0
726,1.9884285826726688e+30,116863.95479612253,137705071789632.06,0.0
727,1.9884285826712642e+30,116863.97510516952,144732225027797.25,0.0
728,1.9884285826797425e+30,116863.71873746024,154514598266256.1,0.0
729,1.988428582567076e+30,116866.92125392861,193023649678994.44,0.0
730,1.9884285826808214e+30,116863.74854125851,132350652510757.9,0.0
731,1.9884285826804245e+30,116863.71783746571,147760133075008.72,0.0
732,1.9884285826410276e+30,116864.85739270244,136641305622358.45,0.0
733,1.9884285826808034e+30,116863.72875151958,139820145680287.28,0.0
734,1.9884285826808214e+30,116863.75102351552,131443576188174.12,0.0
735,1.9884285826794115e+30,116863.7757651353,135984678988211.31,0.0
736,1.988428582638685e+30,116864.86932677639,158384372170765.25,0.0
737,1.9884285826806812e+30,116863.75543080091,131160134956976.0,0.0
738,1.9884285826808315e+30,116863.74974067515,131819998056882.95,0.0
739,1.9884285826806618e+30,116863.71901316865,144921978708570.0,0.0
740,1.988428582661068e+30,116864.20909740539,165511893139497.3,0.0
741,1.9884285826797994e+30,116863.74603489052,143271483290929.28,0.0
742,1.9884285826730285e+30,116863.84089206028,179745570751190.88,0.0
743,1.9884285826523631e+30,116864.47425772472,158465848324591.5,0.0
744,1.9884285826808417e+30,116863.74592294185,133123648963085.14,0.0
745,1.9884285825158402e+30,116868.59545567704,149575823630597.53,0.0
746,1.9884285826806686e+30,116863.72025857015,144368658941581.16,0.0
747,1.9884285823785896e+30,116872.90288071556,161405810295098.53,0.0
748,1.9884285826790216e+30,116863.75205967901,148942256806719.25,0.0
749,1.9884285826700288e+30,116864.02310701304,139554048877186.19,0.0
750,1.9884285826302482e+30,116865.14882022383,145204062052384.8,0.0
751,1.9884285826758674e+30,116863.79130625869,167613164688490.5,0.0
752,1.9884285826805903e+30,116863.74958109326,134142575709442.02,0.0
753,1.9884285826740015e+30,116863.87849891486,152909651112417.7,0.0
754,1.9884285826807406e+30,116860.36439129061,6401561679515783.0,1.0
755,1.9884285826656887e+30,116864.0758330476,166746136578470.75,0.0
756,1.9884285826669098e+30,116863.99191604937,188257856576869.5,0.0
757,1.9884285826775917e+30,116863.81989087448,137751310721261.98,0.0
758,1.9884285826283626e+30,116865.0817969304,196832540104568.7,0.0
759,1.9884285826787413e+30,116863.73599568337,158322463628300.3,0.0
760,1.988428582680766e+30,116863.74105898195,135626619207409.62,0.0
761,1.9884285826808476e+30,116863.74293145163,134147407229783.78,0.0
762,1.9884285826709968e+30,116863.9135263955,172668040629920.56,0.0
763,1.9884285826790078e+30,116863.76931624554,142439150783830.0,0.0
764,1.9884285826737758e+30,116863.83777645598,172217004670574.0,0.0
765,1.9884285825820673e+30,116866.36880331708,241305671572824.94,0.0
766,1.9884285826807795e+30,116863.73957114191,136028468520018.86,0.0
767,1.9884285826749653e+30,116863.85795726354,150585221704145.3,0.0
768,1.988428582680658e+30,116863.71836750858,145209451367770.25,0.0
769,1.9884285826760217e+30,116863.82611537063,151742893092306.1,0.0
770,1.988428582612345e+30,116865.53888186441,203885969331664.2,0.0
771,1.988428582676172e+30,116863.85815067201,137885374874418.22,0.0
772,1.988428582677786e+30,116863.7752028731,152935103183160.22,0.0
773,1.988428582680847e+30,116863.7445772568,133554224307064.95,0.0
774,1.9884285826808267e+30,116863.75166039432,131165292220387.12,0.0
775,1.988428582579439e+30,116866.51971785886,205699914238463.7,0.0
776,1.9884285826808453e+30,116863.74099975238,134866883398481.75,0.0
777,1.988428582680807e+30,116863.73219516328,138489745253927.72,0.0
778,1.988428582679909e+30,116863.70830111031,156903329505308.84,0.0
779,1.9884285826807448e+30,116863.72592922431,141467962027258.75,0.0
780,1.9884285826169485e+30,116865.46176200981,177163394738172.75,0.0
781,1.988428582680847e+30,116863.75005333386,131572664439137.84,0.0
782,1.9884285826799742e+30,116863.7629485722,135199823898289.12,0.0
783,1.98842858267072e+30,116863.98573230904,146456230486197.2,0.0
784,1.9884285826728182e+30,116863.90972017874,153479993233330.12,0.0
785,1.9884285826803237e+30,116863.7172332922,149021196432334.88,0.0
786,1.9884285826557845e+30,116864.41976505533,141495405765870.47,0.0
787,1.988428582519698e+30,116868.41779195149,173423313337794.97,0.0
788,1.9884285826788046e+30,116863.75375158085,150565717178234.38,0.0
789,1.988428582679118e+30,116863.79311858791,132481065022123.69,0.0
790,1.988428582663e+30,116864.227381462,136845318813270.45,0.0
791,1.988428582680017e+30,116863.71855473924,151696823081991.44,0.0
792,1.988428582680849e+30,116863.7491839127,131896834189523.56,0.0
793,1.9884285826759457e+30,116863.86340617128,138229189901137.64,0.0
794,1.9884285826801408e+30,116863.76001866923,134653842519362.42,0.0
795,1.9884285826788035e+30,116863.75456494433,150253959772124.62,0.0
796,1.9884285826729398e+30,116863.8706835171,168048214769646.0,0.0
797,1.988428582663655e+30,116864.12270763848,171103333578799.62,0.0
798,1.9884285826636928e+30,116864.11612200784,173438293502069.75,0.0
799,1.9884285826804358e+30,116863.72259359805,145819122288868.1,0.0
800,1.9884285826741642e+30,116863.8180352276,176097411487098.0,0.0
801,1.9884285826802545e+30,116863.75311660109,136091508694488.1,0.0
802,1.9884285826806916e+30,116863.73428144082,138832575222796.4,0.0
803,1.988428582448818e+30,116870.64737504964,168033102511453.06,0.0
804,1.9884285826431232e+30,116864.66805448776,189410777814124.06,0.0
805,1.9884285826805734e+30,116863.75042453023,134010656501099.16,0.0
806,1.9884285826807313e+30,116863.726824713,141270479953704.22,0.0
807,1.9884285824610908e+30,116870.11385681205,236214671498936.6,0.0
808,1.9884285826803105e+30,116863.71819192343,148798799757559.25,0.0
809,1.9884285826804735e+30,116863.72840539447,143199548035526.5,0.0
810,1.9884285826808425e+30,116863.74365994288,133939488883862.05,0.0
811,1.9884285826808383e+30,116863.73074898249,138749782499074.19,0.0
812,1.9884285826808304e+30,116863.74570613068,133306071597753.08,0.0
813,1.9884285826807803e+30,116863.7445517468,134185602255504.72,0.0
814,1.988428582680825e+30,116863.74997001392,131579151531889.73,0.0
815,1.9884285826799826e+30,116863.74131592667,143222623221310.47,0.0
816,1.9884285826803063e+30,116863.73694490947,141635772737980.53,0.0
817,1.9884285826808456e+30,116863.74099706118,134877354230152.45,0.0
818,1.9884285813193354e+30,116909.61221105717,293929012081625.0,0.0
819,1.9884285826549862e+30,116864.34497979152,181362635242094.5,0.0
820,1.9884285826808414e+30,116863.7502738873,131469168590003.86,0.0
821,1.9884285826347442e+30,116864.99849735679,152591299287941.6,0.0
822,1.988428582604416e+30,116865.8121776811,186594376534175.25,0.0
823,1.98842858268085e+30,116863.75018163958,131509202484190.95,0.0
824,1.988428582667886e+30,116864.08574392198,138473579272661.38,0.0
825,1.988428582677402e+30,116863.75586671263,164986804045948.6,0.0
826,1.9884285826737153e+30,116863.85942140412,163830235900210.88,0.0
827,1.9884285826588506e+30,116864.35715790773,132336722047262.1,0.0
828,1.9884285826766733e+30,116863.79972592005,155165813933728.56,0.0
829,1.988428582672648e+30,116863.96132131635,135512750201363.6,0.0
830,1.9884285826808467e+30,116863.74675039742,132784706061499.31,0.0
831,1.9884285826350302e+30,116864.97548738559,158465531429210.6,0.0
832,1.9884285826645465e+30,116864.12680389702,158973173065471.94,0.0
833,1.988428582277362e+30,116876.22920921697,147421637552338.2,0.0
834,1.9884285825574118e+30,116867.14589379703,226181422958789.97,0.0
835,1.9884285826808025e+30,116863.74089676928,135321329296679.84,0.0
836,1.9884285826808152e+30,116863.73832506059,136166842559691.4,0.0
837,1.9884285826808023e+30,116863.72667786734,140606641004463.9,0.0
838,1.9884285826808436e+30,116863.74553507741,133194882895067.31,0.0
839,1.9884285826808346e+30,116863.73716864389,136386635081588.77,0.0
840,1.9884285826447588e+30,116864.70712557762,152851032657727.94,0.0
841,1.9884285825895092e+30,116866.2098569944,208883427763099.25,0.0
842,1.98842858268083e+30,116863.74567009744,133319229251679.06,0.0
843,1.9884285825157684e+30,116868.59876650262,149162516713387.25,0.0
844,1.9884285826143398e+30,116865.63429328537,138723926259362.0,0.0
845,1.9884285826735256e+30,116863.92460238848,140170148222389.52,0.0
846,1.9884285826808014e+30,116863.72273147947,142131992709661.8,0.0
847,1.9884285826034085e+30,116865.87509200248,172260481373835.06,0.0
848,1.9884285826807854e+30,116863.73189125065,138812101449127.02,0.0
849,1.9884285826808436e+30,116863.75072639211,131327104557789.14,0.0
850,1.9884285826808425e+30,116863.74997582579,131577280672760.73,0.0
851,1.9884285826805844e+30,116863.7140213098,147639700742398.34,0.0
852,1.9884285826807972e+30,116863.7319822723,138684962946161.92,0.0
853,1.9884285826808253e+30,116863.73286477664,138100937599903.12,0.0
854,1.9884285826703987e+30,116863.93225929045,171765942262038.94,0.0
855,1.9884285826010784e+30,116866.0155348116,143619522161555.8,0.0
856,1.9884285826637432e+30,116864.10766584855,176468484489780.1,0.0
857,1.9884285826217995e+30,116865.34740810547,164984364592758.3,0.0
858,1.9884285825442655e+30,116867.52217880124,239184167949262.3,0.0
859,1.9884285826000482e+30,116866.07564038971,132679042972083.98,0.0
860,1.988428582680787e+30,116863.75247529321,131242757804366.98,0.0
861,1.9884285826664315e+30,116864.0859485216,154101171511267.62,0.0
862,1.988428582676795e+30,116863.83399948024,140576134622431.38,0.0
863,1.9884285826805087e+30,116863.72797312423,143010979799534.06,0.0
864,1.9884285826795077e+30,116863.77381586251,135751965277247.86,0.0
865,1.9884285826734408e+30,116863.83013156192,179501994710422.84,0.0
866,1.9884285826808338e+30,116863.7492477676,131841143902297.92,0.0
867,1.988428582670004e+30,116864.02862269808,137738870959525.56,0.0
868,1.9884285826797073e+30,116863.71039383119,158219580490313.75,0.0
869,1.9884285826807817e+30,116863.72649009658,140890501752833.16,0.0
870,1.9884285826797524e+30,116863.77592525817,132620012502736.17,0.0
871,1.9884285826808307e+30,116863.7310225478,138720157863543.4,0.0
872,1.9884285826774837e+30,116863.80088135073,146100117545508.6,0.0
873,1.9884285826364407e+30,116864.85773013266,191370230469406.1,0.0
874,1.9884285817265483e+30,116894.8609524041,266986106842143.5,0.0
875,1.9884285826595622e+30,116864.26210419329,161251381194641.47,0.0
876,1.9884285826808132e+30,116863.73576861294,137114068733218.78,0.0
877,1.9884285826762015e+30,116863.84355380043,143086727689936.78,0.0
878,1.9884285826796324e+30,116863.78077984779,131983190732680.2,0.0
879,1.9884285826786256e+30,116863.77112614972,145673287078727.8,0.0
880,1.9884285826526857e+30,116864.43783637705,169699743460618.1,0.0
881,1.9884285826807842e+30,116863.74764229031,133025751682696.75,0.0
882,1.9884285826680163e+30,116864.05924744488,147159602124847.84,0.0
883,1.9884285792745587e+30,116992.53928530718,154113955845188.75,0.0
884,1.9884285825681064e+30,116866.86610552343,204092086331803.53,0.0
885,1.9884285826797189e+30,116863.76369495619,137415497333144.75,0.0
886,1.9884285826138163e+30,116865.66747552341,132199667026980.25,0.0
887,1.9884285826807344e+30,116863.72229682084,142943747709095.28,0.0
888,1.9884285826775777e+30,116863.83059754361,133951005775839.72,0.0
889,1.988428582680833e+30,116863.75099080558,131209555961962.17,0.0
890,1.9884285826633815e+30,116832.41425574892,9.900656599925322e+17,1.0
891,1.9884285826807645e+30,116863.72921668914,140034587207794.4,0.0
892,1.988428582240375e+30,116877.29717611788,213013416253085.75,0.0
893,1.9884285826808456e+30,116863.74989860153,131625576082180.38,0.0
894,1.9884285826808484e+30,116863.73996494318,135243719923056.64,0.0
895,1.988428582679553e+30,116863.77068023982,136452116253705.03,0.0
896,1.9884285826808464e+30,116863.74965912188,131694052434649.97,0.0
897,1.9884285826800791e+30,116863.74649185625,140285300652884.69,0.0
898,1.9884285813065837e+30,116910.11777341928,275589253578319.12,0.0
899,1.9884285826140966e+30,116865.64972590713,135656580366550.58,0.0
900,1.9884285826801107e+30,116863.72040656708,149991336791326.8,0.0
901,1.9884285826808256e+30,116863.73795137867,136191794457836.31,0.0
902,1.9884285826443175e+30,116864.74777975322,142022269758084.78,0.0
903,1.988428582576902e+30,116866.66016862399,176805399286965.78,0.0
904,1.988428582680509e+30,116863.73676333172,139699198261295.61,0.0
905,1.9884285826807265e+30,116863.73539504717,138078137059848.34,0.0
906,1.9884285826806142e+30,116863.73846188077,138028037626652.12,0.0
907,1.9884285826807823e+30,116863.72390973996,141876626349092.9,0.0
908,1.9884285826804448e+30,116863.72106598644,146299718062615.94,0.0
909,1.9884285826805498e+30,116863.7233890542,144371358689463.28,0.0
910,1.9884285824188616e+30,116871.58333205823,174167916587112.75,0.0
911,1.9884285826808245e+30,116863.74532785868,133496816257596.3,0.0
912,1.98842858268084e+30,116863.74231741914,134444605564724.03,0.0
913,1.9884285826805472e+30,116863.74010220794,138075497260100.56,0.0
914,1.9884285816185033e+30,116898.45974784225,437881656310865.25,0.0
915,1.988428582675401e+30,116863.89629857555,131609287419235.25,0.0
916,1.9884285826796502e+30,116863.75166268987,142647536630000.0,0.0
917,1.9884285825854413e+30,116866.44270623803,159988154839948.25,0.0
918,1.9884285826808442e+30,116863.74899770354,131967994196576.03,0.0
919,1.9884285826804104e+30,116863.73106873767,142810665683581.62,0.0
920,1.9884285826738135e+30,116863.82352190706,177887363397741.84,0.0
921,1.9884285826757295e+30,116863.85801164257,142485287927752.47,0.0
922,1.988428582674654e+30,116863.86825521443,149890375499772.28,0.0
923,1.988428582680523e+30,116863.748278264,135274628213605.61,0.0
924,1.988428582520133e+30,116868.39745911704,176371553803677.34,0.0
925,1.9884285826808203e+30,116863.72761968174,140071568509352.34,0.0
926,1.9884285826807992e+30,116863.72977002617,139505779827394.84,0.0
927,1.988428582680692e+30,116863.75328475737,131842827453537.0,0.0
928,1.9884285826782332e+30,116863.78430556056,144659242010062.72,0.0
929,1.9884285826732309e+30,116863.90129678404,152298049979980.47,0.0
930,1.9884285826806244e+30,116863.7473132179,134662225958587.72,0.0
931,1.9884285825756426e+30,116866.72806230777,164178264268365.28,0.0
932,1.9884285823344135e+30,116874.33366620666,160173714546311.84,0.0
933,1.9884285826807797e+30,116863.72426506056,141775332909305.28,0.0
934,1.988428582458801e+30,116870.2152562883,221457682740755.88,0.0
935,1.988428582648835e+30,116864.48842254553,196145368127944.56,0.0
936,1.9884285826808318e+30,116863.74922916961,131847799402600.6,0.0
937,1.9884285826806677e+30,116863.73972413749,137041698821682.19,0.0
938,1.9884285826729046e+30,116863.88207941676,163707057704833.5,0.0
939,1.9884285826808473e+30,116863.75042664887,131422800564392.75,0.0
940,1.9884285826808315e+30,116863.74765120975,132421135141342.95,0.0
941,1.988428582680847e+30,116863.74917404827,131872147920446.39,0.0
942,1.9884285826791987e+30,116863.76787386654,141048183637661.94,0.0
943,1.988428582680736e+30,116863.73931826814,136537434641671.8,0.0
944,1.9884285826728807e+30,116863.88976323328,160821235275624.5,0.0
945,1.9884285826807412e+30,116863.73053459205,139752136696292.1,0.0
946,1.9884285826808479e+30,116863.73494405352,137133678889938.52,0.0
947,1.9884285826707854e+30,116863.96921110466,152204928953017.06,0.0
948,1.9884285822398438e+30,116877.31817095347,211366173726769.75,0.0
949,1.9884285826709549e+30,116863.92465085987,168444269809951.75,0.0
950,1.9884285826808265e+30,116863.75111062851,131166207102132.88,0.0
951,1.9884285825765555e+30,116866.67893934103,173230495766509.0,0.0
952,1.9884285826755634e+30,116863.82330837911,157849795282194.78,0.0
953,1.9884285826791734e+30,116863.72169859332,159432174123393.47,0.0
954,1.9884285826749785e+30,116863.85213675027,152729880652029.2,0.0
955,1.988428582680848e+30,116863.75088196553,131249206485865.89,0.0
956,1.9884285826735236e+30,116863.92480719015,140099517017829.78,0.0
957,1.9884285826808163e+30,116863.72298005522,141893849369261.66,0.0
958,1.9884285826677086e+30,116863.97820024514,184388710399965.5,0.0
959,1.9884285826808172e+30,116863.72977631286,139303482050741.94,0.0
960,1.9884285818351335e+30,116891.1861514757,187100562948059.88,0.0
961,1.9884285825572817e+30,116867.15276805701,224728742110266.0,0.0
962,1.9884285826803367e+30,116863.72860329882,144505540569224.72,0.0
963,1.98842858267964e+30,116863.76855896556,136397875148429.88,0.0
964,1.9884285826753104e+30,116863.82475273879,160091559473933.3,0.0
965,1.988428582671348e+30,116863.95320778091,152372576815428.56,0.0
966,1.9884285826808464e+30,116863.74707694798,132637206227900.89,0.0
967,1.9884285826748882e+30,116863.88918477409,139405558093038.78,0.0
968,1.9884285826755907e+30,116863.81141607625,162413645901443.97,0.0
969,1.988428582679958e+30,116863.73529724058,145781810256540.94,0.0
970,1.9884285809347088e+30,116924.31541603542,202265048104574.12,0.0
971,1.9884285826808363e+30,116863.75042261995,131415213702569.52,0.0
972,1.98842858268014e+30,116863.76045971329,134493243846942.5,0.0
973,1.988428582676682e+30,116863.7953792082,156827874002235.1,0.0
974,1.9884285826715657e+30,116863.89251726092,174914648061795.38,0.0
975,1.9884285826807893e+30,116863.74155803221,135198474330277.3,0.0
976,1.9884285826808307e+30,116863.7346141993,137402049800980.78,0.0
977,1.9884285826716073e+30,116863.88002612875,179808211983154.44,0.0
978,1.9884285826794e+30,116863.71435752542,159951744289451.0,0.0
979,1.988428582680666e+30,116863.71183368677,147649352671728.06,0.0
980,1.9884285826805146e+30,116863.74868927425,135200944837265.77,0.0
981,1.9884285826785944e+30,116863.80264527848,134143109852427.47,0.0
982,1.9884285826805824e+30,116863.71973947443,145436206690857.47,0.0
983,1.9884285826571353e+30,116864.2486816923,197132317614062.2,0.0
984,1.988428582284701e+30,116875.94180846831,166085635621657.66,0.0
985,1.98842858261212e+30,116865.5541551856,199867903839801.16,0.0
986,1.9884285826808464e+30,116863.74555455518,133191183160764.14,0.0
987,1.988428582680252e+30,116863.7569012168,134706392249044.84,0.0
988,1.9884285826782873e+30,116863.73563378913,163457680390327.72,0.0
989,1.9884285826616515e+30,116864.27915075749,131840002165278.88,0.0
990,1.9884285826808479e+30,116863.74341600192,133996750076785.34,0.0
991,1.9884285778665187e+30,117056.35900995685,414830210939002.0,0.0
992,1.9884285826727135e+30,116863.94142427632,142269342903922.28,0.0
993,1.9884285826795494e+30,116863.77919040363,133371034594995.5,0.0
994,1.988428582680813e+30,116863.75122109607,131462383266594.4,0.0
995,1.988428582680808e+30,116863.74119912229,135167706875642.75,0.0
996,1.9884285826615347e+30,116864.13778384968,190746880120413.8,0.0
997,1.9884285826808414e+30,116863.74668100952,132838135471504.22,0.0
998,1.988428582658051e+30,116864.30131348828,162786858473013.97,0.0
999,1.988428582671812e+30,116863.9546827799,146760866127850.44,0.0
