,0,1,2,3
0,1.988428582675628e+30,116863.7930104494,169639651707006.94,0.0
1,1.988428582680085e+30,116863.72771766459,147396099424485.3,0.0
2,1.988428582680775e+30,116863.7370972936,136989212835643.2,0.0
3,1.988428419833473e+30,115614.79098835372,9.508101364576932e+21,1.0
4,1.9884285826802213e+30,116863.74727976516,138583957238819.84,0.0
5,1.9884285825189674e+30,116868.45172855083,168606072638659.97,0.0
6,1.9884285826808084e+30,116863.65173170762,170119614521191.84,1.0
7,1.988428582627047e+30,116865.18235500032,169479963233374.28,0.0
8,1.9884285826802317e+30,116863.70965037205,152972280934876.2,0.0
9,1.9884285826715324e+30,116863.90212021965,171212125384500.0,0.0
10,1.9884285826458844e+30,116864.59814712273,184984729563159.0,0.0
11,1.9884285826091874e+30,116865.74507864122,154963691646566.16,0.0
12,1.988428582649415e+30,116864.61197973245,137838344219343.81,0.0
13,1.9884285826399504e+30,116864.75799151011,190327813202846.38,0.0
14,1.9884285816019621e+30,116899.11489681725,395208804907373.1,0.0
15,1.988428582662174e+30,116864.20200086462,155636272273476.34,0.0
16,1.9884285826796415e+30,116863.76510973951,137659880779291.53,0.0
17,1.988428582680685e+30,116863.73974692819,136862390482020.8,0.0
18,1.9884285826808e+30,116863.74566383625,133585393374044.94,0.0
19,1.9884285826807313e+30,116863.73553963547,137981076957921.02,0.0
20,1.9884285824136192e+30,116871.8004492302,153541956988746.38,0.0
21,1.9884285826799362e+30,116863.7168385715,153217734647372.06,0.0
22,1.9884285826743973e+30,116863.85061200162,159751538810849.7,0.0
23,1.98842858259966e+30,116865.85649671016,233258159161362.97,0.0
24,1.9884285826807783e+30,116863.72567814997,141240860627472.62,0.0
25,1.9884285826805672e+30,116863.72767990912,142535298919814.1,0.0
26,1.988428582680842e+30,116863.75058511898,131356386928866.55,0.0
27,1.988428582680848e+30,116863.74753580797,132476823354663.78,0.0
28,1.988428582673366e+30,116863.8556415769,169419478024256.16,0.0
29,1.9884285826794655e+30,116863.76685648662,138758081051924.06,0.0
30,1.9884285823693814e+30,116873.2726814775,133071890805148.25,0.0
31,1.9884285826785274e+30,116863.78073694438,142993535481497.56,0.0
32,1.9884285826805377e+30,116863.74545530014,136165211768591.61,0.0
33,1.9884285826658466e+30,116864.0461790852,177474513691704.66,0.0
34,1.9884285826749146e+30,116863.87819311544,143278183578467.8,0.0
35,1.9884285826808456e+30,116863.73554256369,136899572239146.06,0.0
36,1.98842858267708e+30,116863.76406685455,165208322362776.12,0.0
37,1.9884285818626122e+30,116890.1261167707,233505192318809.25,0.0
38,1.988428582680846e+30,116863.74311777383,134100059185916.34,0.0
39,1.988428582680077e+30,116863.75749931927,136214703654563.56,0.0
40,1.9884285826808197e+30,116863.72476876946,141166240322593.88,0.0
41,1.9884285779235844e+30,117053.57344412233,458458650282496.0,0.0
42,1.9884285826802582e+30,116863.73274739385,143693902180944.16,0.0
43,1.988428582680304e+30,116863.74952166714,136950847124019.25,0.0
44,1.98842858265103e+30,116864.44033112853,189335677616400.62,0.0
45,1.9884285825684042e+30,116866.8500113145,207427627554245.53,0.0
46,1.9884285826779174e+30,116863.76788673937,154419131989964.5,0.0
47,1.988428582667821e+30,116864.09861631422,134381356167456.5,0.0
48,1.9884285826577692e+30,116864.33800838364,151234201777882.38,0.0
49,1.988428582680848e+30,116863.7435363815,133925301212602.16,0.0
50,1.988428582633607e+30,116865.08731802725,131515529536453.81,0.0
51,1.9884285826807457e+30,116863.73111702496,139496836115222.94,0.0
52,1.9884285826786214e+30,116863.77620774036,143774808871285.1,0.0
53,1.9884285826807758e+30,116863.7342055561,138030032323661.38,0.0
54,1.988428582680828e+30,116863.73463800689,137393197590261.62,0.0
55,1.988428582680778e+30,116863.75076366744,131953596343328.19,0.0
56,1.9884285826807598e+30,116863.71877443208,144036117745502.66,0.0
57,1.9884285826340676e+30,116865.05186598598,139629661271967.8,0.0
58,1.988428582653318e+30,116864.36377719333,194323508289889.56,0.0
59,1.988428582680506e+30,116863.75189799909,134106183347182.94,0.0
60,1.9884285826788665e+30,116863.76969780885,143745553756363.3,0.0
61,1.988428582558555e+30,116867.08510883569,239399498956095.1,0.0
62,1.9884285826744513e+30,116863.8295863303,167829389762854.38,0.0
63,1.9884285826808298e+30,116863.73051374454,138920759754651.42,0.0
64,1.9884285818535194e+30,116890.47769742509,216888372809705.56,0.0
65,1.98842858252779e+30,116868.02997045538,238485252970898.44,0.0
66,1.9884285826556848e+30,116864.43162146932,138118317836646.53,0.0
67,1.9884285826807412e+30,116863.7277829606,140806116825673.4,0.0
68,1.9884285826442263e+30,116864.75613203073,139872246389507.39,0.0
69,1.9884285826418061e+30,116864.78962494574,154020766857259.62,0.0
70,1.9884285826702638e+30,116863.96622844307,159203815238078.94,0.0
71,1.9884285826808228e+30,116863.73621513437,136843145659314.44,0.0
72,1.988428582680581e+30,116863.73664263597,139038734236758.6,0.0
73,1.9884285826776573e+30,116863.77450198957,154601976966405.12,0.0
74,1.988428582647512e+30,116864.6253218732,153786001299625.7,0.0
75,1.9884285826638893e+30,116864.08246272657,185715297428109.72,0.0
76,1.988428582592288e+30,116866.29577935243,137126481261400.75,0.0
77,1.988428580914893e+30,116925.11251972907,186418808149289.88,0.0
78,1.9884285826807043e+30,116863.72380080823,142663004430817.22,0.0
79,1.9884285816766335e+30,116896.79689045367,189032206423610.62,0.0
80,1.9884285826808417e+30,116863.73359200661,137649767244779.69,0.0
81,1.9884285825782637e+30,116866.58542291285,191700228259151.12,0.0
82,1.9884285826433244e+30,116864.64870793195,195569390021355.66,0.0
83,1.9884285826803457e+30,116863.74668205003,137581300796223.06,0.0
84,1.9884285826801785e+30,116863.76119791127,133837588224272.53,0.0
85,1.9884285826647475e+30,116864.09178869556,171158958754371.56,0.0
86,1.9884285826807896e+30,116863.722572022,142286528337702.12,0.0
87,1.9884285826808445e+30,116863.74478225216,133469983218403.02,0.0
88,1.9884285826805205e+30,116863.71063672312,149597023638763.7,0.0
89,1.9884285810976907e+30,116917.7499596716,403918853662252.0,0.0
90,1.988428582680847e+30,116863.74322212045,134052686931852.69,0.0
91,1.9884285826338553e+30,116865.06830922833,135817934917479.83,0.0
92,1.98842858240508e+30,116871.79662457116,287841053459041.25,0.0
93,1.9884285808972591e+30,116925.82182365369,173438436759067.5,0.0
94,1.9884285824947678e+30,116869.25954693003,145976297756909.03,0.0
95,1.9884285826770254e+30,116863.79875422046,151761226526233.75,0.0
96,1.9884285826800606e+30,116863.73779873937,143787437133591.1,0.0
97,1.9884285826806964e+30,116863.75498484574,131169854487407.2,0.0
98,1.9884285826806272e+30,116863.71759595978,145818304418907.0,0.0
99,1.98842858265435e+30,116864.42150392162,156807251763044.0,0.0
100,1.9884285826743126e+30,116863.8829687124,147812226200789.44,0.0
101,1.988428582680847e+30,116863.7452458026,133312635350964.84,0.0
102,1.9884285826808245e+30,116863.75071398228,131309717544388.52,0.0
103,1.9884285826535209e+30,116864.33925416193,203020420560204.8,0.0
104,1.9884285826801177e+30,116863.76698359346,132334581805663.98,0.0
105,1.9884285826799184e+30,116863.763772521,135447163675421.25,0.0
106,1.9884285826808512e+30,116863.75038260253,131429775339103.67,0.0
107,1.9884285826786374e+30,116863.75666770362,151158849817215.3,0.0
108,1.9884285825550952e+30,116867.26681210543,201828002876573.94,0.0
109,1.9884285826808388e+30,116863.74943134385,131774648025892.69,0.0
110,1.98842858266229e+30,116864.18434003918,161478043972201.56,0.0
111,1.988428582539651e+30,116867.75419931828,195021063295065.56,0.0
112,1.9884285826808132e+30,116863.74047710728,135391448553562.19,0.0
113,1.988428582680207e+30,116863.73130625636,144769523644485.4,0.0
114,1.9884285826808436e+30,116863.74678279056,132764165905468.55,0.0
115,1.9884285826807901e+30,116863.72361209396,141892109807074.72,0.0
116,1.9884285826808405e+30,116863.74572705358,133122846482165.45,0.0
117,1.988428582680798e+30,116863.73514827654,137497158576780.0,0.0
118,1.9884285826797028e+30,116863.72532947625,152321490003748.34,0.0
119,1.9884285826402603e+30,116864.7295925925,199217786304962.0,0.0
120,1.9884285826797186e+30,116863.76779436071,135916583736690.64,0.0
121,1.988428582672412e+30,116863.90767938212,158786647357777.06,0.0
122,1.9884285826805075e+30,116863.73971480639,138597670489691.66,0.0
123,1.9884285826573075e+30,116864.39589365864,134222836654388.45,0.0
124,1.988428582678463e+30,116863.75561583818,153460073232650.72,0.0
125,1.9884285823343333e+30,116874.33680089409,159939254665101.94,0.0
126,1.9884285826205075e+30,116865.43659846617,144580007704605.0,0.0
127,1.988428582679162e+30,116863.73501022729,154177009364272.22,0.0
128,1.9884285826754224e+30,116863.88655795479,134937650772741.77,0.0
129,1.9884285826780444e+30,116863.7601156964,156163298761035.22,0.0
130,1.9884285826808414e+30,116863.73482226318,137195790635749.55,0.0
131,1.988428582637187e+30,116864.79225762248,211835407479887.56,0.0
132,1.9884285826692753e+30,116864.06261059173,132704871774070.62,0.0
133,1.9884285826787419e+30,116863.73310887204,159465713764046.75,0.0
134,1.988428582633224e+30,116864.91260688663,209502719551573.75,0.0
135,1.9884285826808433e+30,116863.73791713064,136021031181905.33,0.0
136,1.9884285826500356e+30,116864.54837685055,155515907453851.34,0.0
137,1.9884285826504173e+30,116864.50787946503,167618229023059.44,0.0
138,1.988428582679979e+30,116863.75174758556,139318918518816.81,0.0
139,1.9884285826803074e+30,116863.73172769436,143607184937683.3,0.0
140,1.988428582621862e+30,116865.34295403433,166062272680814.25,0.0
141,1.9884285819655304e+30,116886.64605999009,187891890683467.8,0.0
142,1.9884285825741534e+30,116866.80706852495,150505213583206.5,0.0
143,1.9884285824133132e+30,116871.81305128774,152422677470036.9,0.0
144,1.9884285826647956e+30,116833.47804244576,9.103930264605709e+17,1.0
145,1.9884285826808448e+30,116863.73986196883,135330397069228.02,0.0
146,1.9884285826805168e+30,116863.73042674971,142000624855222.62,0.0
147,1.9884285826801447e+30,116863.74826923774,138974950394136.89,0.0
148,1.9884285826807465e+30,116863.74423790979,134630403560128.05,0.0
149,1.988428582611002e+30,116865.62850130984,181237508251288.62,0.0
150,1.9884285824713995e+30,116869.98752557993,147244571754762.1,0.0
151,1.9884285826787427e+30,116863.73380610408,159189130509624.62,0.0
152,1.9884285826806914e+30,116863.72267647613,143208212880885.25,0.0
153,1.9884285826808372e+30,116863.7309858224,138684534611531.84,0.0
154,1.9884285826806587e+30,116863.71589584905,146159422506604.12,0.0
155,1.9884285826804065e+30,116863.75912210396,132425148722303.8,0.0
156,1.9884285824923784e+30,116869.36416376443,134663722600223.97,0.0
157,1.9884285826807051e+30,116863.72432575237,142463740060248.75,0.0
158,1.9884285826808464e+30,116863.74229974228,134395272781871.88,0.0
159,1.9884285826807904e+30,116863.72381497963,141798029910755.16,0.0
160,1.988428582680828e+30,116863.74052335348,135245256503770.8,0.0
161,1.988428582680832e+30,116863.72733231532,140110415344907.61,0.0
162,1.9884285826792432e+30,116863.7861880475,133793379150634.3,0.0
163,1.9884285826808363e+30,116863.74790995191,132327044884263.47,0.0
164,1.9884285826713838e+30,116863.94300413788,156021136271411.06,0.0
165,1.9884285826376575e+30,116864.95468957395,136853292833367.94,0.0
166,1.9884285826808442e+30,116863.74594987296,133042377522973.73,0.0
167,1.988428582674412e+30,116863.84484433902,161942172819430.2,0.0
168,1.988428582680469e+30,116863.71292145071,149246491160280.88,0.0
169,1.9884285826736125e+30,116863.89508070255,150592823718596.84,0.0
170,1.9884285826808203e+30,116863.72568513718,140838373017634.72,0.0
171,1.988428582680847e+30,116863.74950751883,131747140152381.67,0.0
172,1.9884285826807724e+30,116863.73759280372,136817371780398.36,0.0
173,1.9884285825965925e+30,116866.04651761097,186252459566270.28,0.0
174,1.9884285822738516e+30,116876.36581235754,139323338021852.6,0.0
175,1.9884285826807552e+30,116863.73225482067,138985769978707.02,0.0
176,1.9884285826653555e+30,116864.13581825487,146410674069027.75,0.0
177,1.9884285826742363e+30,116863.910670178,138056792113666.84,0.0
178,1.9884285826808462e+30,116863.74615766447,132968590853313.05,0.0
179,1.9884285826451152e+30,116864.67340856079,162300134362572.72,0.0
180,1.988428582680699e+30,116863.72065235092,143919215271265.9,0.0
181,1.9884285826650878e+30,116864.1813932291,132145953934391.66,0.0
182,1.988428582671328e+30,116863.95808295044,150649240306124.53,0.0
183,1.988428582677932e+30,116863.75544036881,159263051441031.8,0.0
184,1.9884285826808197e+30,116863.7464125958,133132645580323.22,0.0
185,1.9884285826800637e+30,116863.72560723088,148448050120240.28,0.0
186,1.9884285826807719e+30,116863.75281884,131255690365495.61,0.0
187,1.9884285826808414e+30,116863.74846574232,132183605142092.58,0.0
188,1.9884285826808377e+30,116863.7487078028,132120524340665.6,0.0
189,1.9884285826796085e+30,116863.75159582037,143085970360680.78,0.0
190,1.9884285826608885e+30,116864.23550686476,156791400008138.12,0.0
191,1.9884285826757292e+30,116863.85820259717,142417021078260.84,0.0
192,1.988428582680738e+30,116863.7515915142,132021953130958.56,0.0
193,1.988428582680282e+30,116863.76480647604,131531302888089.53,0.0
194,1.9884285826805788e+30,116863.71404779593,147692450616318.53,0.0
195,1.9884285826765266e+30,116863.77596455911,166510683580761.7,0.0
196,1.9884285826808453e+30,116863.73983154351,135296230864272.44,0.0
197,1.9884285826808267e+30,116863.74140012244,134919866817491.89,0.0
198,1.988428582609266e+30,116865.74011226474,156013383849465.75,0.0
199,1.9884285826807904e+30,116863.75089045089,131789668285049.1,0.0
200,1.9884285826768442e+30,116863.80581429887,150925944711157.94,0.0
201,1.9884285826808397e+30,116863.74649793666,132938489417009.72,0.0
202,1.9884285826045968e+30,116865.80083769283,189282753153689.56,0.0
203,1.988428582646554e+30,116864.52954725576,207665554489869.97,0.0
204,1.9884285825642953e+30,116867.06695573521,166332225273122.16,0.0
205,1.988428582678537e+30,116863.77099689683,146629780518515.22,0.0
206,1.9884285825456743e+30,116867.44940252036,254815666179914.2,0.0
207,1.9884285826806342e+30,116863.72492056443,142924141200196.1,0.0
208,1.988428582680844e+30,116863.75040623166,131421966937341.89,0.0
209,1.9884285825843836e+30,116866.50089852246,149468964428082.56,0.0
210,1.9884285826366613e+30,116864.83847995898,197220821978565.22,0.0
211,1.9884285826807772e+30,116863.71972647568,143500166430810.78,0.0
212,1.9884285824087815e+30,116871.99826167866,136885506327382.25,0.0
213,1.988428582647391e+30,116864.63720632531,150463968401764.62,0.0
214,1.9884285826803443e+30,116863.74581921753,137900727468341.77,0.0
215,1.988428582679588e+30,116863.7095308697,159865275847247.5,0.0
216,1.9884285826806916e+30,116863.71739937658,145256556895041.3,0.0
217,1.98842858268085e+30,116863.74960144027,131717538347016.4,0.0
218,1.988428582677998e+30,116863.798699627,141606804926502.5,0.0
219,1.9884285812402623e+30,116912.7414362294,198209698996974.75,0.0
220,1.9884285826712355e+30,116863.98265192968,142158468443158.72,0.0
221,1.9884285825210348e+30,116868.35517165637,182655385541011.4,0.0
222,1.9884285826787314e+30,116863.74686020115,154064921234753.25,0.0
223,1.9884285826808425e+30,116863.74927597324,131867299236835.0,0.0
224,1.9884285825939774e+30,116866.20013038251,154444332894541.7,0.0
225,1.9884285826774406e+30,116863.82832048059,136146820708347.2,0.0
226,1.9884285826807817e+30,116863.72329458226,142088700160153.75,0.0
227,1.9884285826720115e+30,116863.896954336,167773500395950.0,0.0
228,1.9884285826808448e+30,116863.74635927525,132909850228911.3,0.0
229,1.9884285826808504e+30,116863.73978857629,135314916414891.7,0.0
230,1.9884285826800414e+30,116863.71821464943,151568877353150.16,0.0
231,1.9884285826808414e+30,116863.74512726381,133420879665846.77,0.0
232,1.9884285826769978e+30,116863.81605867148,145316919728116.84,0.0
233,1.988428582679983e+30,116863.74320971625,142509079157926.94,0.0
234,1.9884285825425553e+30,116867.6092770543,221629262097853.22,0.0
235,1.9884285826808397e+30,116863.735452894,137011682452536.28,0.0
236,1.9884285826693276e+30,116864.05103206896,136412486940955.44,0.0
237,1.9884285826681077e+30,116864.0406956789,153454392338184.53,0.0
238,1.9884285826121736e+30,116865.55053463299,200814393188205.97,0.0
239,1.9884285826805526e+30,116863.75281204453,133332460698839.28,0.0
240,1.988428581579411e+30,116900.00518365139,344174262627074.1,0.0
241,1.9884285826768408e+30,116863.8069705057,150492320530379.66,0.0
242,1.9884285826805157e+30,116863.7463347419,136066340396313.45,0.0
243,1.9884285825948344e+30,116866.15057200425,164146675111713.56,0.0
244,1.988428582680846e+30,116863.74598515533,133028941032439.8,0.0
245,1.9884285826803634e+30,116863.73429167035,142079141740763.8,0.0
246,1.9884285826808408e+30,116863.74811320084,132253437205139.47,0.0
247,1.988428582671457e+30,116863.92302647342,163329036945409.84,0.0
248,1.9884285826288496e+30,116865.04333078023,208182638168004.75,0.0
249,1.988428582568781e+30,116866.82958539945,211731014371377.4,0.0
250,1.9884285826807935e+30,116863.7437243624,134360859032419.34,0.0
251,1.9884285821914085e+30,116878.78966207676,283566238694112.94,0.0
252,1.9884285826808355e+30,116863.73439787125,137422864831130.88,0.0
253,1.9884285826805858e+30,116863.73505456538,139572687697656.72,0.0
254,1.988428582680617e+30,116863.71754928841,145937359382178.75,0.0
255,1.988428582680404e+30,116863.71204658157,150241568128411.78,0.0
256,1.988428582680771e+30,116863.7201105092,143414365241277.0,0.0
257,1.9884285826808425e+30,116863.74570573751,133169340508430.83,0.0
258,1.9884285826761427e+30,116863.87260953583,132852065448914.52,0.0
259,1.9884285826776455e+30,116863.7820834053,151703289104291.16,0.0
260,1.9884285826492726e+30,116864.6260363881,134143922822422.11,0.0
261,1.988428582679456e+30,116863.7827746042,132977064922578.89,0.0
262,1.988428582674171e+30,116863.81491149617,177352527726874.3,0.0
263,1.9884285826751863e+30,116863.8780821297,140503460999050.5,0.0
264,1.9884285826808453e+30,116863.74328207149,134021318421738.48,0.0
265,1.9884285826611288e+30,116864.20005446367,168574408658414.2,0.0
266,1.9884285826799232e+30,116863.75042156459,140367446340635.22,0.0
267,1.9884285825478625e+30,116867.62733768715,142730022304251.47,0.0
268,1.988428582657077e+30,116864.2566054484,194257900763244.75,0.0
269,1.9884285826806595e+30,116863.74649101922,134622514094749.84,0.0
270,1.9884285826796797e+30,116863.76817710711,136148993680574.23,0.0
271,1.9884285826808386e+30,116863.73653772204,136578374249254.14,0.0
272,1.9884285826709138e+30,116863.93582730068,164269477680285.06,0.0
273,1.9884285825956248e+30,116866.10421565574,173697110566363.75,0.0
274,1.9884285826675287e+30,116864.01637284228,170047824523872.62,0.0
275,1.9884285826799469e+30,116863.75820790199,137203970650868.22,0.0
276,1.988428582677919e+30,116863.76682399155,154829130676229.25,0.0
277,1.9884285826808428e+30,116863.73419201605,137427998342700.16,0.0
278,1.9884285826684438e+30,116863.96784414466,179916900108599.56,0.0
279,1.9884285826808332e+30,116863.74977444451,131650051144038.77,0.0
280,1.9884285826808467e+30,116863.74546595434,133220346798701.64,0.0
281,1.9884285826752642e+30,116863.84466144833,152589362867821.7,0.0
282,1.988428582620974e+30,116865.4047889324,151603685665775.8,0.0
283,1.9884285814201988e+30,116906.22456539627,135667880174411.38,0.0
284,1.9884285826774102e+30,116863.74933706381,167605354130730.3,0.0
285,1.9884285826789074e+30,116863.71842043157,163666709214156.53,0.0
286,1.988428582680077e+30,116863.75516699544,137071154362613.03,0.0
287,1.9884285826808422e+30,116863.74421687814,133741027195133.97,0.0
288,1.988428582680802e+30,116863.7342469943,137777496297995.73,0.0
289,1.9884285826808352e+30,116863.74971142372,131672898448743.78,0.0
290,1.988428582680739e+30,116863.71812246506,144515930430093.06,0.0
291,1.9884285826808405e+30,116863.7341258192,137464711976182.88,0.0
292,1.9884285822089694e+30,116878.5200620121,136007091893087.81,0.0
293,1.9884285826796927e+30,116863.74115347241,146220364610895.3,0.0
294,1.9884285826247277e+30,116865.13117950848,224338957706041.25,0.0
295,1.9884285825812068e+30,116866.41885131762,228943188346324.7,0.0
296,1.988428582678715e+30,116863.76387761417,147538585302064.25,0.0
297,1.9884285825430636e+30,116867.58349351212,226698974878972.56,0.0
298,1.988428582680712e+30,116863.75418418548,131325690757872.95,0.0
299,1.988428582679143e+30,116863.76110693121,144184645605377.9,0.0
300,1.9884285826807775e+30,116863.72873323581,140078210443031.94,0.0
301,1.9884285826795885e+30,116863.7101207909,159628583026305.06,0.0
302,1.9884285826321121e+30,116865.004233995,182330952096258.5,0.0
303,1.98842858267971e+30,116863.70762288218,159328813600376.84,0.0
304,1.988428582680737e+30,116863.74487538244,134490535324473.86,0.0
305,1.988428582680846e+30,116863.75090675618,131240975247635.1,0.0
306,1.9884285826795063e+30,116863.77837927057,134100586120903.94,0.0
307,1.9884285826671487e+30,116864.09233605793,143777633937498.5,0.0
308,1.9884285826735244e+30,116863.92493653826,140054919770503.48,0.0
309,1.988428582680845e+30,116863.73678267669,136441255335238.73,0.0
310,1.9884285824563823e+30,116870.32141982204,206968221732577.25,0.0
311,1.9884285826808388e+30,116863.74600993369,133022671398928.44,0.0
312,1.9884285826804876e+30,116863.70687429726,151418206240062.44,0.0
313,1.9884285826777345e+30,116863.81288939709,138933389149495.86,0.0
314,1.988428582660283e+30,116864.15758661603,197912334533916.0,0.0
315,1.9884285826799454e+30,116863.75812194977,137235563971200.06,0.0
316,1.9884285826459086e+30,116864.5956446195,185777888037101.5,0.0
317,1.9884285826787917e+30,116863.767702925,145272952771218.5,0.0
318,1.9884285826677024e+30,116863.97957967981,183856880538682.7,0.0
319,1.988428582679353e+30,116863.78580656032,132864656831289.38,0.0
320,1.9884285761165347e+30,117145.35160802095,229907205310117.0,0.0
321,1.988428582673907e+30,116863.91208466557,140921618636832.2,0.0
322,1.9884285826803575e+30,116863.75815897314,133246348400357.03,0.0
323,1.9884285826799165e+30,116863.76331492963,135614043164241.94,0.0
324,1.988428582680693e+30,116863.71333943297,146788132384592.22,0.0
325,1.9884285826800397e+30,116863.7275915927,147931568638462.38,0.0
326,1.9884285825814253e+30,116866.40622567241,232008579371120.56,0.0
327,1.9884285820589114e+30,116883.5010123093,163650612360910.12,0.0
328,1.9884285823759412e+30,116763.45151919028,1.7306871640242772e+19,1.0
329,1.9884285811807143e+30,116915.09148855481,148533196429872.62,0.0
330,1.9884285826808096e+30,116863.74831745132,132535891601400.0,0.0
331,1.9884285826807938e+30,116863.72526373407,141241588509321.78,0.0
332,1.988428582679931e+30,116863.72836715469,148729484669205.3,0.0
333,1.988428582678851e+30,116863.78724658203,137288367132438.45,0.0
334,1.9884285826778217e+30,116863.74628106046,164249908957653.12,0.0
335,1.9884285826808453e+30,116863.74272635623,134269653988764.88,0.0
336,1.988428582679797e+30,116863.74710835476,142867564484765.62,0.0
337,1.98842858265785e+30,116864.32760428012,154448103235200.72,0.0
338,1.9884285826808467e+30,116863.74355084171,133943577693715.39,0.0
339,1.9884285826808335e+30,116863.73209516102,138267570438872.9,0.0
340,1.9884285826808273e+30,116863.73896573846,135801529634903.7,0.0
341,1.9884285824265166e+30,116871.26068104706,210013974774169.22,0.0
342,1.9884285826121975e+30,116865.54892017397,201237645229060.6,0.0
343,1.9884285826518708e+30,116864.52803840487,142891146484305.9,0.0
344,1.988428582661853e+30,116864.24998468946,140511592467067.56,0.0
345,1.9884285826807992e+30,116863.72914842103,139724417397601.33,0.0
346,1.988428582647533e+30,116864.62320304783,154384027591775.7,0.0
347,1.9884285812402603e+30,116912.74151604978,198207735475171.12,0.0
348,1.988428582680648e+30,116863.7436972911,135768544663537.34,0.0
349,1.988428582667567e+30,116864.00825979027,173030834567512.4,0.0
350,1.9884285826674254e+30,116864.03765481361,162387386550596.1,0.0
351,1.988428581735842e+30,116894.49853658298,285062308094834.75,0.0
352,1.9884285826537677e+30,116864.48797243989,137525817448702.92,0.0
353,1.9884285826485658e+30,116864.51733376017,186553272627782.9,0.0
354,1.988428582680459e+30,116863.75940630936,131814519808093.36,0.0
355,1.988428582592694e+30,116866.27302573691,141083714786397.47,0.0
356,1.9884285826725224e+30,116863.87383582484,171578540023287.84,0.0
357,1.9884285826808324e+30,116863.74419069535,133833254016840.92,0.0
358,1.988428582680816e+30,116863.74210203414,134736577556677.92,0.0
359,1.9884285826697648e+30,116863.94984210582,171787407529861.0,0.0
360,1.988428582282944e+30,116876.010820442,161392478778897.25,0.0
361,1.9884285826808448e+30,116863.74507090836,133362757376355.38,0.0
362,1.9884285826808436e+30,116863.74457703652,133569227962349.11,0.0
363,1.9884285826807887e+30,116863.72071623283,143019160913875.88,0.0
364,1.988428582600042e+30,116866.07605925173,132605415446408.92,0.0
365,1.9884285826808408e+30,116863.7511772319,131214684695741.36,0.0
366,1.9884285826189726e+30,116865.31914179235,215237117769020.0,0.0
367,1.9884285826805185e+30,116863.71902799462,146346924027703.38,0.0
368,1.9884285826173113e+30,116865.43679573736,183394990826499.06,0.0
369,1.9884285826799626e+30,116863.7227893466,150598340008392.75,0.0
370,1.988428582641636e+30,116864.80463078155,150032811783555.5,0.0
371,1.9884285824158558e+30,116871.70819465756,161990044257968.53,0.0
372,1.9884285717456373e+30,117420.84991582656,163780052415194.5,0.0
373,1.9884285826804938e+30,116863.71658632637,147543691240025.1,0.0
374,1.9884285826805151e+30,116863.74516190017,136498653057524.48,0.0
375,1.9884285826806137e+30,116863.74549663244,135426825930835.4,0.0
376,1.9884285823432865e+30,116873.97800762685,189184269562368.47,0.0
377,1.9884285825803326e+30,116866.46906285963,217099906180505.1,0.0
378,1.9884285825332838e+30,116868.06033103773,148263040569002.53,0.0
379,1.988428582680719e+30,116863.74941168525,132984194108601.45,0.0
380,1.9884285826807682e+30,116863.73850919724,136528058155972.34,0.0
381,1.9884285826444464e+30,116864.73609100429,145073577351492.9,0.0
382,1.9884285826704282e+30,116863.92456796739,174697898838399.8,0.0
383,1.988428582664701e+30,116864.10007560605,168219188675962.06,0.0
384,1.9884285816998577e+30,116895.89815328545,221678024508071.2,0.0
385,1.9884285826715113e+30,116863.90773440768,169071367915181.2,0.0
386,1.988428581990586e+30,116885.67874352144,237942763526797.44,0.0
387,1.9884285826795528e+30,116863.77276579374,135693085621209.72,0.0
388,1.9884285821275007e+30,116880.82349505535,350166558628747.6,0.0
389,1.9884285826786543e+30,116863.7406897006,157366300595731.2,0.0
390,1.9884285826759037e+30,116863.88358126552,131246256183883.53,0.0
391,1.9884285826808428e+30,116863.73754133256,136157517284488.05,0.0
392,1.9884285826804403e+30,116863.75364103018,134100421521116.9,0.0
393,1.9884285826500162e+30,116864.5503285786,154949555022810.06,0.0
394,1.9884285822881224e+30,116875.80695482134,175665958807592.9,0.0
395,1.98842858268085e+30,116863.7469889938,132677574314546.39,0.0
396,1.9884285826808479e+30,116863.74899567719,131939109130173.67,0.0
397,1.988428582677064e+30,116863.77371025312,161398471187077.9,0.0
398,1.988428582680841e+30,116863.7447643507,133541429942404.89,0.0
399,1.9884285826806925e+30,116863.71862190247,144756254149245.88,0.0
400,1.988428582680319e+30,116863.74134906617,139838898437280.84,0.0
401,1.9884285826808144e+30,116863.74812057921,132564872502972.4,0.0
402,1.9884285826728478e+30,116863.89992225273,157056507455863.6,0.0
403,1.988428582680215e+30,116863.7048828385,155044780677855.16,0.0
404,1.9884285826808422e+30,116863.74107183909,134853774491132.67,0.0
405,1.9884285826808138e+30,116863.72358471558,141673627780118.8,0.0
406,1.9884285821142168e+30,116881.35109121173,300819481307422.4,0.0
407,1.9884285826743154e+30,116863.88170755502,148266529208832.38,0.0
408,1.988428582680847e+30,116863.744641405,133537783662167.98,0.0
409,1.9884285826751598e+30,116863.88896396934,136703935652388.28,0.0
410,1.988428582446564e+30,116870.74285481854,158059784692494.3,0.0
411,1.988428582680846e+30,116863.74595461122,133071577624593.44,0.0
412,1.9884285826807792e+30,116863.75225260548,131382033652300.53,0.0
413,1.9884285820480212e+30,116883.917203971,145767925534804.4,0.0
414,1.9884285826151085e+30,116865.58471729739,148975305783291.0,0.0
415,1.988428582679635e+30,116863.77590712429,133732838235597.03,0.0
416,1.9884285826808462e+30,116863.75096338092,131220801218859.69,0.0
417,1.9884285826355056e+30,116864.93664018672,168786238042661.78,0.0
418,1.9884275023001428e+30,114781.63885545166,6.248415808266889e+22,0.0
419,1.9884285826808414e+30,116863.73974451527,135364725173922.75,0.0
420,1.988428582671332e+30,116863.95713019355,150985024275587.3,0.0
421,1.9884285817520485e+30,116893.8649386449,319861997612611.0,0.0
422,1.9884285826807598e+30,116863.74991724885,132442120951264.72,0.0
423,1.9884285826805703e+30,116863.7117218187,148659663616505.7,0.0
424,1.9884285826806905e+30,116863.7504789814,132861202528169.36,0.0
425,1.9884285826808425e+30,116863.7485595202,132091369921590.64,0.0
426,1.9884285826808473e+30,116863.74799653729,132300163741607.66,0.0
427,1.9884285826474204e+30,116864.6342891117,151274350296234.44,0.0
428,1.9884285826808397e+30,116863.75098465504,131300230115220.56,0.0
429,1.98842858267937e+30,116863.76221974244,141469101299045.22,0.0
430,1.9884285826495405e+30,116864.59935690399,141220553109968.56,0.0
431,1.988428581578454e+30,116900.0428896091,342174058430057.75,0.0
432,1.9884285826808433e+30,116863.74416066107,133722999617900.08,0.0
433,1.9884285826418152e+30,116864.78879593847,154243442885161.16,0.0
434,1.9884285826605794e+30,116864.27960182512,142959179919978.5,0.0
435,1.9884285826493297e+30,116864.62042081293,135610784464141.27,0.0
436,1.988428582676165e+30,116863.86107496728,136857881370557.97,0.0
437,1.9884285825667784e+30,116866.93700632,189962607562110.6,0.0
438,1.988428582680839e+30,116863.7306149806,138798952478717.61,0.0
439,1.9884285812817131e+30,116911.1026531717,243290578054347.25,0.0
440,1.9884285826805996e+30,116863.71775874267,146019657642095.56,0.0
441,1.988428582676971e+30,116863.83154024946,139698526388148.34,0.0
442,1.9884285826804344e+30,116863.72259857279,145817214309347.6,0.0
443,1.9884285822960516e+30,116875.49224556396,200294158564311.06,0.0
444,1.9884285826725384e+30,116863.86908217965,173426889036739.9,0.0
445,1.9884285826791618e+30,116863.73667182507,153528578631693.25,0.0
446,1.9884253834569794e+30,112736.80725690405,2.0073037843553537e+23,1.0
447,1.9884285826711536e+30,116864.00374792112,135123715045735.0,0.0
448,1.9884285809913222e+30,116922.03743216718,256093837700754.5,0.0
449,1.9884285826419016e+30,116864.78107264465,156329908235112.44,0.0
450,1.9884285826608828e+30,116864.23643101004,156492220994174.4,0.0
451,1.9884285816739753e+30,116896.89956386719,185643253300913.94,0.0
452,1.988428582674877e+30,116863.89342929874,137928141273831.84,0.0
453,1.9884285826733525e+30,116863.86048910984,167545698696753.06,0.0
454,1.988428582464111e+30,116869.97864329792,257380811268742.88,0.0
455,1.9884285826065044e+30,116865.67746196374,220707766200234.56,0.0
456,1.9884285826779354e+30,116863.7531106574,160180019676798.06,0.0
457,1.988428582649893e+30,116864.56328817765,151227810525456.47,0.0
458,1.988428582680826e+30,116863.73894150316,135842838815154.64,0.0
459,1.988428582665868e+30,116864.04192354227,179051534066520.8,0.0
460,1.9884285826791092e+30,116863.72365399679,159328074207139.7,0.0
461,1.988428582660452e+30,116864.29717394494,137695360107474.47,0.0
462,1.9884285826737595e+30,116863.8433852704,170017992087525.56,0.0
463,1.9884285823542612e+30,116873.53050591428,233393711179479.94,0.0
464,1.9884285826415418e+30,116864.81287909615,147874977892768.38,0.0
465,1.9884285826784108e+30,116863.80318490612,135747495502784.06,0.0
466,1.9884285826704302e+30,116863.92410338153,174876045556975.7,0.0
467,1.9884285826784396e+30,116863.77681704234,145400626871749.84,0.0
468,1.9884285826804425e+30,116863.75304602052,134317530094114.28,0.0
469,1.9884285826789777e+30,116863.7225849571,161207508940634.94,0.0
470,1.988428582230151e+30,116877.69918445073,183652969644827.38,0.0
471,1.9884285824509245e+30,116870.5574509832,177991861069050.0,0.0
472,1.9884285825922148e+30,116866.29983026398,136432297073434.64,0.0
473,1.9884285826807592e+30,116863.72570053539,141418887772705.97,0.0
474,1.988428582673776e+30,116863.83756787828,172299129465795.84,0.0
475,1.9884285826805698e+30,116863.71454835196,147563593606717.72,0.0
476,1.9884285826808464e+30,116863.74627258841,132953632472016.69,0.0
477,1.9884285826808422e+30,116863.74777395865,132441400397623.81,0.0
478,1.9884285826765207e+30,116863.77981140435,164986356644941.8,0.0
479,1.988428582650366e+30,116864.51340291924,165927796273860.0,0.0
480,1.9884285826760594e+30,116863.80682612363,159046785567645.4,0.0
481,1.9884285826787354e+30,116863.74226965812,155855168069260.0,0.0
482,1.9884285826808507e+30,116863.74960004761,131719383252102.84,0.0
483,1.9884285825779733e+30,116866.6014566479,188414560460023.9,0.0
484,1.988428582680714e+30,116863.7271537477,141312609358323.78,0.0
485,1.9884285824306312e+30,116871.08420662017,232610725943686.5,0.0
486,1.9884285826808433e+30,116863.74725069801,132570151461772.5,0.0
487,1.9884285826802584e+30,116863.73963939329,141093659330564.25,0.0
488,1.9884285825880005e+30,116866.29793258315,189039489468436.4,0.0
489,1.9884285824040203e+30,116871.84228939214,281059968964174.7,0.0
490,1.9884285826046357e+30,116865.79828746928,189891832116873.66,0.0
491,1.9884285818727656e+30,116889.73247113255,253724787094064.62,0.0
492,1.9884285819820637e+30,116886.00884895935,219442143232112.56,0.0
493,1.9884285826804448e+30,116863.73866538354,139629318476304.81,0.0
494,1.988428582604167e+30,116865.82789101654,182922752289949.34,0.0
495,1.9884285826808343e+30,116863.7458330898,133209611038291.66,0.0
496,1.9884285823615508e+30,116873.22810750664,269030094885279.2,0.0
497,1.9884285826783275e+30,116863.78976255166,141597660925139.1,0.0
498,1.988428582679331e+30,116863.73908518566,150779418435084.7,0.0
499,1.988428582455891e+30,116870.34277521966,204167260294811.56,0.0
500,1.9884285826803615e+30,116863.73794654237,140704346227148.2,0.0
501,1.9884285826808408e+30,116863.73455581661,137290253720257.1,0.0
502,1.9884285826401708e+30,116864.73787828561,196591842508877.38,0.0
503,1.9884285826803944e+30,116863.75968982193,132331843963633.69,0.0
504,1.988428579447633e+30,116984.8666731002,233796112863122.0,0.0
505,1.9884285826807353e+30,116863.71458376374,145874543625622.28,0.0
506,1.9884285825361e+30,116867.92679923378,167197027613013.8,0.0
507,1.9884285826808028e+30,116863.74992158871,132003124252834.64,0.0
508,1.988428582680843e+30,116863.7510861806,131175576642087.44,0.0
509,1.9884285816600135e+30,116897.43820748436,168896847218129.7,0.0
510,1.9884285826808155e+30,116863.72790178058,140035773166343.62,0.0
511,1.9884285826777933e+30,116863.76981997449,155003248993838.3,0.0
512,1.9884285824742914e+30,116869.8628163663,160758804371485.78,0.0
513,1.9884285826808445e+30,116863.74887864092,131981593840632.27,0.0
514,1.9884285826808462e+30,116863.74625957031,132946711850559.47,0.0
515,1.988428582680701e+30,116863.72034567314,144007155076756.78,0.0
516,1.9884285826808484e+30,116863.75041130873,131423450685060.53,0.0
517,1.988428582680831e+30,116863.7497604031,131655130664041.55,0.0
518,1.988428582663812e+30,116864.0959855178,180713600920789.12,0.0
519,1.9884285826797692e+30,116863.73381325805,148274292080940.25,0.0
520,1.9884285825353517e+30,116867.96253222025,161919724734931.28,0.0
521,1.9884285826367185e+30,116864.83360936107,198722883076874.53,0.0
522,1.9884285826454957e+30,116864.63661931102,173108946250204.06,0.0
523,1.9884285826804513e+30,116863.75028081969,135230056893477.11,0.0
524,1.9884285826762094e+30,116863.83916997531,144672531290447.47,0.0
525,1.9884285826783388e+30,116863.78214309654,144413830807394.1,0.0
526,1.9884285826808228e+30,116863.73746742822,136403272547046.95,0.0
527,1.9884285826611485e+30,116864.19693774276,169639053704684.72,0.0
528,1.9884285826803257e+30,116863.71414403162,150222984270446.4,0.0
529,1.9884285826422742e+30,116864.74729981013,165710052357135.38,0.0
530,1.988428580887005e+30,116926.23429238917,166340256686318.88,0.0
531,1.9884285826129049e+30,116865.50070381428,214223445084748.53,0.0
532,1.9884285823859265e+30,116872.60330263487,188779877916067.88,0.0
533,1.9884285826807035e+30,116863.73625024779,137982283381807.1,0.0
534,1.9884285826808442e+30,116863.74683216606,132719818291044.62,0.0
535,1.9884285826804006e+30,116863.72605915501,144831585367363.4,0.0
536,1.988428582680543e+30,116863.7152971076,147553555391971.7,0.0
537,1.988428582678739e+30,116863.73767454506,157659908728915.38,0.0
538,1.988428581036939e+30,116920.20035279063,310728989058360.0,0.0
539,1.9884285826607418e+30,116864.25666574738,150041675461021.0,0.0
540,1.9884285826805864e+30,116863.73396326684,139981469552861.56,0.0
541,1.9884285826808425e+30,116863.74223290503,134423280798500.89,0.0
542,1.988428582665131e+30,116864.17398851171,134395533467425.38,0.0
543,1.988428582674763e+30,116863.82413069795,166526007370426.47,0.0
544,1.988428576101067e+30,117146.1927224508,224762541064520.0,0.0
545,1.9884285826086225e+30,116865.78033939668,147681756297143.06,0.0
546,1.9884285826807643e+30,116863.74040613443,135867420798785.98,0.0
547,1.988428582680795e+30,116863.75202234038,131323105900610.66,0.0
548,1.9884285826808484e+30,116863.74401389358,133763815567777.73,0.0
549,1.988428582680835e+30,116863.74901752837,132042301952274.4,0.0
550,1.9884285826791852e+30,116863.78620206649,134359579085894.94,0.0
551,1.98842858268068e+30,116863.71775936642,145218159706529.9,0.0
552,1.9884285826594085e+30,116864.28331871751,154443447643303.75,0.0
553,1.9884285826762035e+30,116863.84225251176,143556309325560.75,0.0
554,1.988428582680801e+30,116863.74207922006,134892720419037.3,0.0
555,1.9884285826234374e+30,116865.22898549466,195661132597994.3,0.0
556,1.9884285826733724e+30,116863.85318180831,170375409311697.3,0.0
557,1.9884285826805374e+30,116863.74185528001,137495774014443.22,0.0
558,1.988428582570674e+30,116866.72554478917,234908967646382.9,0.0
559,1.9884285826799271e+30,116863.74243717604,143360935910762.56,0.0
560,1.9884285826677573e+30,116863.9681704388,188286580260326.12,0.0
561,1.988428581977954e+30,116886.16759432443,211091534596354.88,0.0
562,1.988428582680836e+30,116863.73934983766,135597470387004.64,0.0
563,1.9884285826802582e+30,116863.7489658353,137620479664065.4,0.0
564,1.988428582679688e+30,116863.7530434478,141735326960756.75,0.0
565,1.9884285825783617e+30,116866.57995551673,192832159535490.75,0.0
566,1.9884285826807626e+30,116863.72708221931,140866994579571.47,0.0
567,1.9884285826791596e+30,116863.73921559182,152539115130860.47,0.0
568,1.9884285826454898e+30,116864.63719494516,172935741824569.44,0.0
569,1.988428582680843e+30,116863.74252636559,134340895022892.66,0.0
570,1.9884285826805236e+30,116863.73837343343,138939112608558.73,0.0
571,1.9884285826807617e+30,116863.74933139568,132611463001815.55,0.0
572,1.9884285825225694e+30,116868.28265354423,193924909684947.1,0.0
573,1.988428582660007e+30,116864.19861165935,182891673202029.8,0.0
574,1.988428582672142e+30,116863.98602543668,131588650194500.42,0.0
575,1.9884285826808245e+30,116863.75136505633,131269677598468.36,0.0
576,1.9884285826663333e+30,116864.10406913605,148041764722370.7,0.0
577,1.9884285826808422e+30,116863.74840719506,132146444926372.97,0.0
578,1.9884285826808366e+30,116863.73080151931,138748505567555.14,0.0
579,1.9884285750823585e+30,117202.19078015286,626394497645808.0,0.0
580,1.9884285548219546e+30,116248.34869521232,1.6013910189129956e+21,1.0
581,1.9884285826807327e+30,116863.74537397039,134348531484774.9,0.0
582,1.9884285826804552e+30,116863.71809899641,147339811626952.44,0.0
583,1.988428582677961e+30,116863.82712230374,131441188217013.73,0.0
584,1.9884285826797622e+30,116863.74967465662,142253606868095.56,0.0
585,1.9884285826807415e+30,116863.73084279866,139636511952643.72,0.0
586,1.9884285826808265e+30,116863.74988736823,131609107856006.72,0.0
587,1.9884285826807963e+30,116863.74327088127,134504098303991.22,0.0
588,1.9884285826746847e+30,116863.85554593724,154568032122438.56,0.0
589,1.9884285826804023e+30,116863.72088568125,146815041922423.28,0.0
590,1.988428582679277e+30,116863.74017608949,150932941994111.0,0.0
591,1.9884285817321812e+30,116894.64137850887,277787045330664.0,0.0
592,1.9884285826807896e+30,116863.7384886273,136331057900319.11,0.0
593,1.988428582679746e+30,116863.71427244907,156279574165406.75,0.0
594,1.9884285800651628e+30,116958.89892273062,219178782960998.0,0.0
595,1.98842858183382e+30,116891.23662410908,185151311760590.06,0.0
596,1.9884285818553558e+30,116890.40675443238,220137410225335.3,0.0
597,1.9884285826807488e+30,116863.71749765557,144640258622184.78,0.0
598,1.988428582679381e+30,116863.74299500673,148727079678818.25,0.0
599,1.988428582661903e+30,116864.24280147415,142707215075813.25,0.0
600,1.988428582654035e+30,116864.45777791024,146055522134498.28,0.0
601,1.9884285826801183e+30,116863.7620049583,134136057071584.88,0.0
602,1.9884285826152844e+30,116865.57312534204,151461778217192.72,0.0
603,1.9884285826390283e+30,116864.83981703513,166412198652786.25,0.0
604,1.988428582680848e+30,116863.75069749833,131318171801967.31,0.0
605,1.988428582668772e+30,116864.0384509073,147058044642482.0,0.0
606,1.98842858266768e+30,116863.98474683032,181873848538170.88,0.0
607,1.9884285826642375e+30,116864.17853880284,142079658781550.62,0.0
608,1.9884285824812244e+30,116869.55738758961,199155331119318.0,0.0
609,1.9884285826776717e+30,116863.76241852272,159292439892842.12,0.0
610,1.9884285826808456e+30,116863.74816222826,132260059190773.2,0.0
611,1.9884285826807873e+30,116863.74061689577,135581734768506.27,0.0
612,1.9884285826502076e+30,116864.53032599752,160827157256403.53,0.0
613,1.9884285826444996e+30,116864.73110220008,146391057878865.75,0.0
614,1.9884285825260152e+30,116868.11692375477,222173346452295.34,0.0
615,1.9884285823840207e+30,116872.68155691208,181207856583293.38,0.0
616,1.988428582680843e+30,116863.74016099935,135197736904546.42,0.0
617,1.9884285826807426e+30,116863.73805951179,136945547017233.75,0.0
618,1.9884285826808355e+30,116863.75122131029,131126182428816.44,0.0
619,1.9884285495245066e+30,116203.86782349399,1.9079855271920457e+21,1.0
620,1.988428582611723e+30,116865.5807448566,193029759685619.6,0.0
621,1.988428582624582e+30,116865.14244240081,220874450140497.97,0.0
622,1.9884285826806823e+30,116863.7127968263,147095539556729.25,0.0
623,1.9884285801510383e+30,116955.25465173202,281936259807780.25,0.0
624,1.9884285826793011e+30,116863.78485565916,133726204834296.62,0.0
625,1.988428582653936e+30,116864.46913537725,142802909609786.38,0.0
626,1.9884187128877575e+30,110367.37759403136,6.57951112495482e+23,1.0
627,1.9884285826787894e+30,116863.77002201274,144404382589338.62,0.0
628,1.9884285826761678e+30,116863.85920169333,137515526694043.72,0.0
629,1.9884285826804248e+30,116863.70951917717,150996757079211.84,0.0
630,1.9884285826804197e+30,116863.75445820877,134010056473777.7,0.0
631,1.9884285826745985e+30,116863.88996092405,142111996564943.75,0.0
632,1.9884285826331865e+30,116864.9157980715,208505970441910.7,0.0
633,1.988428582680004e+30,116863.75294030063,138615786881009.98,0.0
634,1.9884285824620354e+30,116870.07176651472,242616211418431.5,0.0
635,1.988428582669941e+30,116864.04270329858,133176228797301.69,0.0
636,1.988428582651904e+30,116864.524353955,143920439480988.8,0.0
637,1.9884285826121032e+30,116865.55530034371,199569307619377.34,0.0
638,1.9884285826805104e+30,116863.71460700376,148136597337582.9,0.0
639,1.9884285825374445e+30,116867.86200709948,177177734929776.3,0.0
640,1.9884285826785327e+30,116863.77623400152,144667643134355.12,0.0
641,1.988428582680725e+30,116863.74788879137,133471553070836.2,0.0
642,1.9884285826606486e+30,116864.26978997349,145959443535352.12,0.0
643,1.9884285826619077e+30,116864.24185217143,142999167383015.06,0.0
644,1.9884285820114595e+30,116884.86526959037,290899267873567.06,0.0
645,1.9884285826807395e+30,116863.74896665152,132956717690302.88,0.0
646,1.988428582677795e+30,116863.76766748211,155835065069429.8,0.0
647,1.9884285826709976e+30,116863.91337045268,172727736641020.5,0.0
648,1.9884285826675786e+30,116864.00580434069,173940526153447.28,0.0
649,1.9884285824822867e+30,116869.50977351394,205889402028650.38,0.0
650,1.9884285826697135e+30,116863.96239077709,167104422424087.6,0.0
651,1.988428582679944e+30,116863.76515332423,134665598183541.89,0.0
652,1.988428582680844e+30,116863.74908500366,131908524842137.4,0.0
653,1.988428582680812e+30,116863.73161944485,138678967756579.36,0.0
654,1.9884266773625954e+30,113512.91265374197,1.1722818143080174e+23,1.0
655,1.9884285826778774e+30,116863.8001688887,142283083371642.88,0.0
656,1.9884285826808425e+30,116863.74094097648,134944874057774.19,0.0
657,1.988428582509477e+30,116868.5862483672,243814862577964.4,0.0
658,1.988428582673854e+30,116863.93011778475,134741913280751.72,0.0
659,1.988428582680655e+30,116863.71395220014,146950328732313.72,0.0
660,1.9884285816198015e+30,116898.4082399769,441438177785509.6,0.0
661,1.9884285826808403e+30,116863.75017878575,131503555281166.64,0.0
662,1.988428582658657e+30,116864.2184248225,191175097818729.7,0.0
663,1.988428582679005e+30,116863.77322652312,140990181852529.12,0.0
664,1.988428582680845e+30,116863.74095181479,134897721884512.83,0.0
665,1.9884285826732781e+30,116863.8855516146,158070369750503.34,0.0
666,1.988428582680847e+30,116863.74776758396,132378797044948.42,0.0
667,1.9884285826804147e+30,116863.71274184134,149852126373042.94,0.0
668,1.9884285826806232e+30,116863.73989804529,137396008819426.44,0.0
669,1.9884285826805233e+30,116863.7493326931,134887991018917.27,0.0
670,1.9884285824598962e+30,116870.16686540881,228385019347182.7,0.0
671,1.9884285826135903e+30,116865.453075783,227722827209048.2,0.0
672,1.988428582675319e+30,116863.82080795678,161605192242280.53,0.0
673,1.9884285810082827e+30,116921.35463298231,275088691499828.25,0.0
674,1.988428582680844e+30,116863.74331858697,134008317665255.7,0.0
675,1.988428582680625e+30,116863.73091912761,140750638716963.12,0.0
676,1.988428582680789e+30,116863.72559415502,141178777769416.47,0.0
677,1.988428582675185e+30,116863.8789459654,140199423848294.12,0.0
678,1.9884285826802055e+30,116863.7389978432,141858162260114.88,0.0
679,1.9884285826808453e+30,116863.74989191128,131633551771437.11,0.0
680,1.98842858268083e+30,116863.75004321117,131552630504443.77,0.0
681,1.9884285826808453e+30,116863.74086761684,134933951441538.94,0.0
682,1.9884285826801346e+30,116863.71446864944,152085268053773.28,0.0
683,1.9884285826804797e+30,116863.7568781681,132547512452365.16,0.0
684,1.9884285822938386e+30,116875.58038032296,193059831191571.8,0.0
685,1.9884285826788772e+30,116863.75493756778,149318057381366.22,0.0
686,1.988428582671384e+30,116863.94328447637,155920139111611.97,0.0
687,1.9884285826482243e+30,116864.55313963459,175161978880203.38,0.0
688,1.988428582680058e+30,116863.74180993176,142273651197856.12,0.0
689,1.9884285826509372e+30,116864.450941383,185794572866569.3,0.0
690,1.9884285826808408e+30,116863.74562258426,133252003985172.05,0.0
691,1.988428582438906e+30,116870.722156967,286685958625622.94,0.0
692,1.9884285822955033e+30,116875.51407891161,198476555842916.5,0.0
693,1.9884285826779115e+30,116863.77232088019,152715720036098.75,0.0
694,1.9884285826808428e+30,116863.73548638109,136942733293085.45,0.0
695,1.988428582680293e+30,116863.73109849815,143998522431417.47,0.0
696,1.988428582583411e+30,116866.55366624161,140465948437438.31,0.0
697,1.988428582676151e+30,116863.86809542877,134410842947710.56,0.0
698,1.9884285826153056e+30,116865.57176778637,151755231880494.2,0.0
699,1.9884285826801822e+30,116863.7492650564,138212988567389.38,0.0
700,1.9884285825351496e+30,116867.9721901283,160520360234328.75,0.0
701,1.9884285826780187e+30,116863.78156677577,147962002919176.44,0.0
702,1.9884285826808296e+30,116863.73700788106,136509254684012.78,0.0
703,1.9884285826808397e+30,116863.73312751444,137832605371802.69,0.0
704,1.9884285775169808e+30,117073.59325317452,226609006960233.75,0.0
705,1.988428582656133e+30,116864.37783281594,153920872723727.56,0.0
706,1.9884285826806598e+30,116863.74856078376,133865141127122.44,0.0
707,1.9884285826772202e+30,116863.77618353977,158664925386472.03,0.0
708,1.9884285826808422e+30,116863.75039288467,131427705601134.19,0.0
709,1.9884285825986313e+30,116865.92151007387,216153560979704.84,0.0
710,1.9884285826313232e+30,116865.06674877706,165449393475240.88,0.0
711,1.9884285825092525e+30,116868.59694178539,241861658512014.0,0.0
712,1.9884285826804833e+30,116863.7304158981,142345515999561.78,0.0
713,1.9884285826731824e+30,116863.91667310383,146793818576334.12,0.0
714,1.988428582676162e+30,116863.86264044355,136309814260924.45,0.0
715,1.9884285826801045e+30,116863.73611305348,143962516280421.66,0.0
716,1.9884285826660848e+30,116864.14923811296,133647416872716.23,0.0
717,1.9884285826643137e+30,116864.16589394132,146088431225874.56,0.0
718,1.9884285826728891e+30,116863.88717737669,161788712002508.22,0.0
719,1.988428582677559e+30,116863.74558425005,167501336787885.72,0.0
720,1.9884285826808158e+30,116863.74458374531,133859951994868.58,0.0
721,1.9884285826799584e+30,116863.72888403342,148239559678729.47,0.0
722,1.9884285826807268e+30,116863.73348528311,138790574903642.81,0.0
723,1.9884285826793397e+30,116863.72540535097,156120043825508.9,0.0
724,1.9884285817030758e+30,116895.7733516669,226667300421791.06,0.0
725,1.9884285826688356e+30,116864.02434956962,151863834369909.53,0.0
726,1.9884285826695095e+30,116864.01012334946,150063947438981.0,0.0
727,1.9884285826808436e+30,116863.74606570456,133048186791174.45,0.0
728,1.9884285826746717e+30,116863.86124642381,152458645926814.47,0.0
729,1.9884285802176972e+30,116952.43125643181,343808619431099.25,0.0
730,1.9884285826643956e+30,116864.15230094362,150484058277097.8,0.0
731,1.9884285826805644e+30,116863.7580451967,131307012541819.56,0.0
732,1.9884285812997332e+30,116910.38919868911,266252485619229.12,0.0
733,1.9884285826616006e+30,116864.12720278797,194706005386215.56,0.0
734,1.988428582657386e+30,116864.38631691712,136936972489594.64,0.0
735,1.9884285826695033e+30,116864.01181204735,149483202438551.1,0.0
736,1.98842858266923e+30,116863.93390134457,185195022688875.97,0.0
737,1.9884285826738813e+30,116863.92115517665,137791030605705.22,0.0
738,1.988428582680842e+30,116863.74780796152,132364575846301.84,0.0
739,1.9884285826704122e+30,116863.92888923088,173046606669310.3,0.0
740,1.9884285826803705e+30,116863.75724625721,133453528813958.78,0.0
741,1.988428582639612e+30,116864.78838609417,181154096720313.25,0.0
742,1.9884285826683923e+30,116863.97923372613,175593345642760.72,0.0
743,1.9884285826461316e+30,116864.57318906793,193009853863371.7,0.0
744,1.988428582656278e+30,116864.35991280994,159464326097605.25,0.0
745,1.9884285826752375e+30,116863.85633873448,148294591982002.75,0.0
746,1.9884285822326192e+30,116877.60250967229,190308273940710.62,0.0
747,1.988428582676287e+30,116863.79818489426,160034341586590.44,0.0
748,1.988428582679841e+30,116863.72652454038,150390338503469.5,0.0
749,1.9884285826808366e+30,116863.74893013459,131956420695012.14,0.0
750,1.9884285826808065e+30,116863.73292607548,138251210260644.64,0.0
751,1.9884285826643526e+30,116864.15962383238,148104867782469.8,0.0
752,1.9884285825982015e+30,116865.94824388981,209436042584005.8,0.0
753,1.988428579374241e+30,116988.11339176794,195693676073287.88,0.0
754,1.9884285826318853e+30,116865.02243762485,177280424171941.66,0.0
755,1.988428582531795e+30,116868.12987238946,139219484127129.88,0.0
756,1.9884285824123354e+30,116871.85319712698,148911220693039.3,0.0
757,1.988428580887012e+30,116926.2340083184,166345036265118.5,0.0
758,1.9884285825523785e+30,116867.40507669012,176919430821530.44,0.0
759,1.9884285826808363e+30,116863.74990237947,131603799117167.0,0.0
760,1.9884285826808442e+30,116863.74677079218,132746820047131.67,0.0
761,1.98842858267717e+30,116863.80969655512,145965551932957.47,0.0
762,1.988428582679297e+30,116863.79095401472,131547749085024.16,0.0
763,1.9884285793461144e+30,116989.36030661249,182881100236916.62,0.0
764,1.988428581242973e+30,116912.63436628967,200862449645665.38,0.0
765,1.9884285826708743e+30,116863.9462878536,160424078271073.38,0.0
766,1.988428582437478e+30,116870.78535167291,276435787605442.2,0.0
767,1.988428571048728e+30,117472.58526292731,1661676133809640.0,0.0
768,1.9884285826808462e+30,116863.74578775572,133132716304658.38,0.0
769,1.9884285826808208e+30,116863.74073066816,135211750041350.95,0.0
770,1.9884285826807913e+30,116863.71946997024,143466801834131.6,0.0
771,1.9884285826807772e+30,116863.71877278585,143875834397943.1,0.0
772,1.9884285715051198e+30,117436.48830824473,2698463961652280.0,0.0
773,1.9884285825814928e+30,116866.4023366753,232959980674434.12,0.0
774,1.9884285766565946e+30,117116.43831032403,509716748964618.0,0.0
775,1.988428582549542e+30,116867.54571836599,154503800337556.94,0.0
776,1.9884285826808388e+30,116863.73377387595,137608714127405.28,0.0
777,1.9884285826684618e+30,116863.96371342239,181502294474399.94,0.0
778,1.988428582665279e+30,116864.14885637665,142227047385253.66,0.0
779,1.9884285826785414e+30,116863.7686460355,147515842164084.62,0.0
780,1.9884285826614604e+30,116864.14947382455,186438248393781.7,0.0
781,1.988428582680848e+30,116863.74848106723,132126154314446.05,0.0
782,1.988428582531435e+30,116868.14653760071,137130925984409.97,0.0
783,1.988428582569914e+30,116866.76766763667,225266520823113.94,0.0
784,1.9884285826807431e+30,116863.7223930414,142827314934449.5,0.0
785,1.9884285826743503e+30,116863.86844302365,153098878560984.4,0.0
786,1.988428582680098e+30,116863.76253554456,134155742639074.75,0.0
787,1.988428582680842e+30,116863.75079570367,131337584882128.55,0.0
788,1.988428582621545e+30,116865.36521215715,160732798791285.6,0.0
789,1.9884285826774285e+30,116863.83696580767,133100775849971.16,0.0
790,1.9884285826518103e+30,116864.53443214233,141117940565816.44,0.0
791,1.9884285826494676e+30,116864.60649420574,139300602971573.11,0.0
792,1.9884285826808453e+30,116863.73856232574,135770110251519.95,0.0
793,1.988428582675035e+30,116863.82874155522,161545477813735.94,0.0
794,1.9884285824272502e+30,116871.22939313634,213856117043700.1,0.0
795,1.9884285826303155e+30,116865.14374285379,146395761663717.22,0.0
796,1.9884285826808197e+30,116863.7386465714,135983935910501.0,0.0
797,1.9884285826498282e+30,116864.56990650049,149353074612930.5,0.0
798,1.988428582679903e+30,116863.73050018882,148209979819331.2,0.0
799,1.9884285826808262e+30,116863.72775832545,139963192875583.98,0.0
800,1.988428582676954e+30,116863.84149454258,136158783814385.88,0.0
801,1.988428582636291e+30,116864.87054791264,187550065844646.2,0.0
802,1.9884285826804698e+30,116863.70628877587,151840640303513.94,0.0
803,1.9884285826803266e+30,116863.71011901513,151797545741224.12,0.0
804,1.988428582680841e+30,116863.74942967966,131775134169628.64,0.0
805,1.9884285826785876e+30,116863.8096922402,131644735926916.2,0.0
806,1.9884285824557177e+30,116870.35035679198,203181789290942.28,0.0
807,1.9884285826759775e+30,116863.84788990105,143755744062369.34,0.0
808,1.988428575331954e+30,117187.70172272196,863607793598584.0,0.0
809,1.9884285826796158e+30,116863.73605769123,148992074612177.0,0.0
810,1.988428582153696e+30,116880.26811312747,175351251934904.62,0.0
811,1.9884285826805188e+30,116863.7172387808,147036317090139.47,0.0
812,1.988428582678762e+30,116863.80067563767,133221831310765.14,0.0
813,1.9884285825897701e+30,116866.19437193224,212552932130796.16,0.0
814,1.9884285826720078e+30,116863.89841414812,167219462009893.5,0.0
815,1.988428581647997e+30,116897.9010214468,155796788412066.7,0.0
816,1.9884285826472116e+30,116864.65473737396,145662760427214.94,0.0
817,1.9884285826706993e+30,116863.99085024504,144704857335549.75,0.0
818,1.988428582680844e+30,116863.75043162574,131411956625798.58,0.0
819,1.988428582680846e+30,116863.74248137495,134322237312010.44,0.0
820,1.988428582663356e+30,116864.17168866533,154412562810691.3,0.0
821,1.9884285826807707e+30,116863.72625131569,141110566220939.53,0.0
822,1.988428582680673e+30,116863.71437574523,146591207795384.56,0.0
823,1.988428582661148e+30,116864.19700658474,169615487208686.44,0.0
824,1.9884285826482058e+30,116864.55503651038,174573333919550.7,0.0
825,1.9884285826768357e+30,116863.80996848109,149371584659079.38,0.0
826,1.9884285826807353e+30,116863.7225624754,142822067766000.7,0.0
827,1.9884285826648874e+30,116864.06680463869,180234238181466.44,0.0
828,1.9884285826437813e+30,116864.60373912465,210469286884710.2,0.0
829,1.9884285826808267e+30,116863.74914454184,131878520970779.45,0.0
830,1.9884285826704623e+30,116863.91579660843,178081463850051.2,0.0
831,1.9884285826795438e+30,116863.7099698654,160162076603889.56,0.0
832,1.9884285826808487e+30,116863.7454851712,133219099235246.1,0.0
833,1.9884285826807887e+30,116863.73683702626,136970118081123.8,0.0
834,1.9884285823749884e+30,116873.04829376304,149599004832561.22,0.0
835,1.9884285822389516e+30,116877.35342633036,208629548035565.5,0.0
836,1.9884285826807797e+30,116863.73664058276,137124469675127.86,0.0
837,1.988428582678121e+30,116863.78933329653,143897642448608.4,0.0
838,1.9884285826807873e+30,116863.72541085223,141238628621654.06,0.0
839,1.9884285826759713e+30,116863.85067526059,142753597753328.28,0.0
840,1.9884285817544583e+30,116893.77048912134,325424350457489.6,0.0
841,1.9884285826726786e+30,116863.95198602688,138656248193572.78,0.0
842,1.988428582680059e+30,116863.7414358649,142414410815934.56,0.0
843,1.9884285826797853e+30,116863.77485391912,132666345190856.9,0.0
844,1.9884285826803792e+30,116863.71398575214,149734073070176.8,0.0
845,1.988428582678857e+30,116863.77861576738,140441414875360.42,0.0
846,1.9884285815499304e+30,116901.1645581848,287999114905874.9,0.0
847,1.9884285826808383e+30,116863.7491534505,131875270727299.58,0.0
848,1.9884285826801824e+30,116863.75653441518,135537422488136.67,0.0
849,1.9884285826421014e+30,116864.7631281966,161261532182745.5,0.0
850,1.9884285822849074e+30,116875.93370223706,166646045799716.6,0.0
851,1.9884285826763997e+30,116863.84589498918,140152076347986.53,0.0
852,1.9884285826808425e+30,116863.74997137401,131580309956361.75,0.0
853,1.988428582679723e+30,116863.75690290007,139920965198270.06,0.0
854,1.9884285826807665e+30,116863.72817927426,140383789563664.22,0.0
855,1.9884285826808442e+30,116863.74002494979,135262244107971.7,0.0
856,1.988428582680258e+30,116863.7447367494,139188920897248.7,0.0
857,1.9884285826805118e+30,116863.71861185913,146589413930092.44,0.0
858,1.988428582666404e+30,116864.09126351571,152306748005701.88,0.0
859,1.9884285826755587e+30,116863.82568517941,156947488266594.75,0.0
860,1.988428582278951e+30,116876.16718250157,151257875065094.6,0.0
861,1.9884285826756456e+30,116863.78493161192,172874209780487.0,0.0
862,1.9884285826520527e+30,116864.50842454146,148433765108831.12,0.0
863,1.988428582677027e+30,116863.79731644422,152304523920956.3,0.0
864,1.9884285826808307e+30,116863.73171155846,138447749833692.56,0.0
865,1.9884285825461956e+30,116867.70717113778,132025863507304.5,0.0
866,1.9884285826687045e+30,116864.05249921896,142372467646570.44,0.0
867,1.988428582676986e+30,116863.82335740721,142650925863203.38,0.0
868,1.9884285826766862e+30,116863.79169046988,158247034387566.66,0.0
869,1.9884285826440605e+30,116864.77104892713,136094615903308.8,0.0
870,1.9884285825173393e+30,116868.52693788974,158378144105703.2,0.0
871,1.9884285820737798e+30,116882.9294250748,192066189273379.5,0.0
872,1.9884285826808115e+30,116863.73591192599,137079902197977.56,0.0
873,1.988428582680435e+30,116863.72890097908,143412065398470.3,0.0
874,1.9884285826805177e+30,116863.73870910832,138891958487830.17,0.0
875,1.9884285826797552e+30,116863.76507671006,136551585931836.92,0.0
876,1.9884285825985485e+30,116865.92661915538,214855790601418.47,0.0
877,1.988428582680844e+30,116863.73591612368,136757799546808.42,0.0
878,1.9884285826805002e+30,116863.73273907027,141293159102771.1,0.0
879,1.9884285825879262e+30,116866.30224661455,188111210212338.0,0.0
880,1.988428582680847e+30,116863.74824719729,132204814893338.33,0.0
881,1.9884285826808487e+30,116863.74599268402,133032209487993.23,0.0
882,1.988428582680634e+30,116863.75169132744,132971706977264.4,0.0
883,1.9884285826807972e+30,116863.7405773118,135494717254698.12,0.0
884,1.988428582314512e+30,116874.7457452665,273816040839660.8,0.0
885,1.9884285826807606e+30,116863.71750939189,144505001085297.3,0.0
886,1.9884285819630805e+30,116886.74017221075,183654763283511.88,0.0
887,1.9884285826098176e+30,116865.70508984715,163587908353917.8,0.0
888,1.9884285826784244e+30,116863.79197663108,139800953052199.39,0.0
889,1.9884285826714666e+30,116863.92038614608,164311271608295.97,0.0
890,1.988428582680736e+30,116863.74412511777,134765802568161.44,0.0
891,1.9884285826328153e+30,116864.9467143491,199040486636214.8,0.0
892,1.9884285826682017e+30,116864.02082828089,160393133544953.34,0.0
893,1.9884285826494347e+30,116864.60996806416,138373243566800.05,0.0
894,1.9884285825242256e+30,116868.20345917622,206975983755601.6,0.0
895,1.9884285826754168e+30,116863.88893531132,134120446426216.45,0.0
896,1.9884285826805602e+30,116863.7480357596,135011348605022.58,0.0
897,1.988428581515798e+30,116902.50158595969,235122267325241.25,0.0
898,1.9884285826808205e+30,116863.73512914484,137283832020212.72,0.0
899,1.9884285826808453e+30,116863.74713780126,132636772732913.02,0.0
900,1.9884285826791323e+30,116863.77794908779,137951658473552.55,0.0
901,1.9884285826801937e+30,116863.71596382902,150876610951237.75,0.0
902,1.9884285826802933e+30,116863.72690032517,145599154409351.44,0.0
903,1.9884285826807885e+30,116863.721202634,142834061042085.47,0.0
904,1.9884285826807544e+30,116863.72486402841,141783317780192.3,0.0
905,1.98842858264252e+30,116864.7248285878,172186382430807.1,0.0
906,1.9884285826428378e+30,116864.69514876396,181034709679270.12,0.0
907,1.9884285826808462e+30,116863.74324559553,134063957186781.2,0.0
908,1.9884285826619423e+30,116864.23694937692,144513659760079.9,0.0
909,1.9884285826807876e+30,116863.7236480829,141915045580796.38,0.0
910,1.9884285826787835e+30,116863.77728180119,141705972494936.53,0.0
911,1.9884285826804206e+30,116863.7493868738,135866040001042.83,0.0
912,1.9884285826803778e+30,116863.72367555952,145989039724867.8,0.0
913,1.9884285826762094e+30,116863.83960551675,144514487049915.44,0.0
914,1.988428582679551e+30,116863.77261068112,135749449746697.69,0.0
915,1.98842858267877e+30,116863.79218688759,136263305427098.42,0.0
916,1.9884285826808467e+30,116863.74569041698,133139796574196.83,0.0
917,1.9884285826777322e+30,116863.81456057933,138331687738994.22,0.0
918,1.9884285826662185e+30,116864.12527522484,141158827405667.06,0.0
919,1.9884285826800617e+30,116863.73275021512,145706496949925.7,0.0
920,1.9884285826281726e+30,116865.09657872727,192604327983274.7,0.0
921,1.9884285826808405e+30,116863.74360893815,133959912908881.84,0.0
922,1.9884285826797464e+30,116863.70800037499,158779440016377.6,0.0
923,1.9884285826808183e+30,116863.73457284423,137494123205799.75,0.0
924,1.9884285826807645e+30,116863.72844293277,140339811613262.12,0.0
925,1.9884285789422615e+30,117006.62957928624,458239891277051.0,0.0
926,1.9884285825447598e+30,116867.49678954926,244535405298470.66,0.0
927,1.9884285826808433e+30,116863.74834028367,132170770323639.22,0.0
928,1.9884285826703846e+30,116863.93582569572,170417465450370.44,0.0
929,1.988428582531997e+30,116868.1204812279,140409626539804.31,0.0
930,1.988428582649731e+30,116864.57988755917,146558677213071.25,0.0
931,1.988428582680351e+30,116863.72719774395,144903791666723.84,0.0
932,1.9884285825992896e+30,116865.88003739838,226936888147798.4,0.0
933,1.9884285826685595e+30,116864.08308451984,132519226887051.12,0.0
934,1.9884285826785825e+30,116863.72412779958,164919461064207.7,0.0
935,1.9884285826094377e+30,116865.72925238142,158329716392688.62,0.0
936,1.988428582680251e+30,116863.70493184339,154656039575141.12,0.0
937,1.988428582596491e+30,116866.05257679538,184898219280922.9,0.0
938,1.9884285826808473e+30,116863.74643089582,132866146463444.69,0.0
939,1.9884285826807713e+30,116863.72009674484,143419613045287.5,0.0
940,1.988428582677857e+30,116863.8147588904,136998453494491.75,0.0
941,1.9884285826806035e+30,116863.75274485066,132880528998830.84,0.0
942,1.9884285826221347e+30,116865.32364018842,170803227478760.44,0.0
943,1.988428582671646e+30,116863.99920886873,131784878022451.34,0.0
944,1.988428582680841e+30,116863.74714309,132606494920479.6,0.0
945,1.9884285826804065e+30,116863.70550898404,152806618990793.72,0.0
946,1.9884285826789637e+30,116863.73981347412,154395703062179.2,0.0
947,1.9884285826692052e+30,116863.93973479042,182911791114076.53,0.0
948,1.9884285826808473e+30,116863.74956206046,131729861483037.95,0.0
949,1.9884285826771372e+30,116863.82958347826,138739053298311.53,0.0
950,1.9884285826808403e+30,116863.74900561919,131928924747465.94,0.0
951,1.9884285826806767e+30,116863.7161055389,145888661450734.78,0.0
952,1.988428582616064e+30,116865.52168977413,162917067870322.0,0.0
953,1.9884285823898506e+30,116872.44110023318,205500916850551.88,0.0
954,1.988428582680359e+30,116863.74625291298,137609796209840.58,0.0
955,1.9884285826808037e+30,116863.75217996658,131185118457059.06,0.0
956,1.988428582680583e+30,116863.7557952816,131939783670943.23,0.0
957,1.9884285826803907e+30,116863.72072191525,146999234543679.8,0.0
958,1.988428582680516e+30,116863.74638485078,136047888435805.06,0.0
959,1.9884285826223072e+30,116865.31134566246,173878349099992.34,0.0
960,1.9884285826202474e+30,116865.45414095288,140823192021290.12,0.0
961,1.9884285826476918e+30,116864.607347148,158914992676768.2,0.0
962,1.9884285826808304e+30,116863.747749482,132563343457166.45,0.0
963,1.9884285826174527e+30,116865.42698209727,185893440472192.75,0.0
964,1.9884285826803623e+30,116863.74088956146,139603171615086.9,0.0
965,1.9884285826808453e+30,116863.74859511993,132100520954091.14,0.0
966,1.9884285826090976e+30,116865.75064222433,153794886057751.12,0.0
967,1.9884285826807305e+30,116863.73842358316,136909786836552.8,0.0
968,1.9884285826565965e+30,116864.31975013348,172408710689701.88,0.0
969,1.988428582680741e+30,116863.74909019005,132893052861692.52,0.0
970,1.9884285820348389e+30,116883.9443084309,366091521043779.5,0.0
971,1.9884285826807285e+30,116863.75225085668,131863841997607.72,0.0
972,1.9884285826808453e+30,116863.74072250498,134972039915394.08,0.0
973,1.9884285826802309e+30,116863.71108300137,152408724581641.62,0.0
974,1.988428582666333e+30,116864.10454152587,147886004337483.38,0.0
975,1.9884285826808256e+30,116863.75064092084,131336163658398.69,0.0
976,1.9884285826488368e+30,116864.48836353426,196165312630563.94,0.0
977,1.9884285826713357e+30,116863.95576631572,151466553510055.8,0.0
978,1.9884285826807296e+30,116863.7521047813,131895834675217.86,0.0
979,1.9884285826808442e+30,116863.74888607016,131980319234923.31,0.0
980,1.988428582670033e+30,116864.02177106214,139996075013312.05,0.0
981,1.9884285826786262e+30,116863.77099009999,145724325375855.75,0.0
982,1.9884285826477478e+30,116864.60169373668,160554430333366.7,0.0
983,1.9884285826694374e+30,116864.02654207012,144480743829933.44,0.0
984,1.988428582676614e+30,116863.83384863524,142500075737394.12,0.0
985,1.988428582679212e+30,116863.75082698552,147448132632875.44,0.0
986,1.9884285823144916e+30,116874.74662435966,273714991298693.56,0.0
987,1.988409870698051e+30,108452.17599582183,1.311232337733786e+24,0.0
988,1.9884285826806705e+30,116863.7175703306,145398596921782.4,0.0
989,1.988428582658849e+30,116864.3574048569,132266831730084.4,0.0
990,1.9884285826808408e+30,116863.7453529253,133333167032452.08,0.0
991,1.9884285826734048e+30,116863.84203938107,174749022385934.94,0.0
992,1.9884285826808507e+30,116863.7509564078,131226700224781.94,0.0
993,1.9884285791646073e+30,116996.47867320466,736079809443375.0,0.0
994,1.988428582679824e+30,116863.7610640603,137348995711288.44,0.0
995,1.988428582680843e+30,116863.73722296124,136275521152781.05,0.0
996,1.988428582680729e+30,116863.74085037108,136055146482573.66,0.0
997,1.9884285826799516e+30,116863.74860370069,140761481388812.5,0.0
998,1.9884285826805444e+30,116863.75547410462,132433417443952.56,0.0
999,1.988428582679936e+30,116863.72108242798,151556135668020.38,0.0
