,0,1,2,3
0,6.017818206359423e+30,6138187.10537527,13255.949033406083,0.0
1,6.024836214469833e+30,6141144.736442699,24409.73154977183,0.0
2,6.01777948215782e+30,6138180.907297534,13776.90317773779,0.0
3,6.027151474006992e+30,6142735.144145213,13611.137577576585,0.0
4,6.017691482369523e+30,6138168.849385934,13541.162242327902,0.0
5,6.033743098626405e+30,6146861.604435142,21732.187625736697,0.0
6,6.04487643384573e+30,6154751.611661055,27492.321301298085,0.0
7,6.018284579455371e+30,6138292.299928253,15366.936923506004,0.0
8,6.017733575464129e+30,6138173.793810315,14005.29892282241,0.0
9,6.022517321456928e+30,6140128.240095285,18815.79191297294,0.0
10,6.019116264625852e+30,6138568.5058371965,14967.889995136473,0.0
11,6.023402338854019e+30,6140397.962958049,17062.188642244422,0.0
12,6.01807008964572e+30,6138238.720668889,13581.097274019294,0.0
13,6.017891484846172e+30,6138200.62813414,13393.035759320874,0.0
14,6.022580706018563e+30,6140070.206646845,22308.695531460387,0.0
15,6.012863236109139e+30,5944763.261840496,1.1897601108451775e+20,1.0
16,6.017805758862671e+30,6138184.995635199,14259.869444432343,0.0
17,6.01804445940344e+30,6138232.906350909,13822.020552015667,0.0
18,6.018156294456499e+30,6138261.8917864375,14624.758677133716,0.0
19,6.041286780436517e+30,6151823.088018404,26403.483957907985,0.0
20,6.038016363942343e+30,6150144.808114673,18738.890634535695,0.0
21,6.017903651918594e+30,6138203.040928212,14004.220761984752,0.0
22,6.027080624182409e+30,6142854.1354316315,16410.237829842332,0.0
23,6.031319633583594e+30,6145081.633838625,15121.654836289985,0.0
24,6.017687865013481e+30,6138168.586801819,13173.34018335974,0.0
25,6.019286792073013e+30,6138624.633717851,15620.548273930373,0.0
26,6.017738680762887e+30,6138174.58732901,13248.596906506284,0.0
27,6.033797648402614e+30,6147792.903925973,22953.042021955094,0.0
28,6.017797125727559e+30,6138183.544676071,14261.193983026844,0.0
29,6.017688035556653e+30,6138168.595535968,13221.38626159878,0.0
30,6.018044438968263e+30,6138232.919652512,13874.45100820653,0.0
31,6.018225746846273e+30,6138278.66997147,13438.75792865791,0.0
32,6.017736125207008e+30,6138174.12780364,14400.508126130526,0.0
33,6.021386001275036e+30,6139506.736647725,17476.090688619566,0.0
34,6.029695377178018e+30,6144717.818140502,16395.2358810744,0.0
35,6.017774019351555e+30,6138179.758612448,13369.4228081025,0.0
36,6.018111732215458e+30,6138250.208308548,14075.021199236326,0.0
37,6.028710327012973e+30,6143414.027643776,15265.001036933092,0.0
38,6.018235188827379e+30,6138281.416105444,14419.740330380293,0.0
39,6.017926854978112e+30,6138207.967994747,13796.586993662624,0.0
40,6.047541589123136e+30,6156668.639223964,53544.12462878981,0.0
41,6.017688588886018e+30,6138168.6294009425,13276.204176316362,0.0
42,6.017863098097725e+30,6138195.352694659,13296.501809266074,0.0
43,6.018134170228716e+30,6138255.5486081075,14388.764089263654,0.0
44,6.017708002902918e+30,6138170.564587671,13306.051409125012,0.0
45,6.023655666401466e+30,6140525.847218056,23196.854828419644,0.0
46,6.017694247241988e+30,6138169.099412515,13228.766247068743,0.0
47,6.018944066949894e+30,6138502.089052094,16252.932091209172,0.0
48,6.019171266452814e+30,6138573.029431199,17448.88271325611,0.0
49,6.017688000560834e+30,6138168.593126345,13412.93346736984,0.0
50,6.018640701914086e+30,6138403.967911235,15999.923508302616,0.0
51,5.880054350797228e+30,5387519.72706561,4.438726427222992e+21,1.0
52,6.01932308943836e+30,6138631.4102797,13838.929635358676,0.0
53,6.017694670074948e+30,6138169.132730623,13961.207224354795,0.0
54,6.017692269675361e+30,6138168.917679732,13504.151545113464,0.0
55,4.141251761160028e+19,642.8557228131557,1.3112322577326384e+24,1.0
56,6.018717390898876e+30,6138414.896557626,15714.608122517537,0.0
57,6.01923437234991e+30,6138590.101285166,14551.639009324654,0.0
58,6.018492112757344e+30,6138352.907651794,15461.221392719322,0.0
59,6.017688023814688e+30,6138168.594762162,13263.068129106752,0.0
60,6.017774021624083e+30,6138179.9606646495,13517.335733517404,0.0
61,6.025687345266728e+30,6142046.016349868,13324.770963367104,0.0
62,6.022830082062876e+30,6140249.087498611,18330.331196876592,0.0
63,6.020601757890002e+30,6139101.15956518,18194.486301013574,0.0
64,6.018165098112861e+30,6138262.37988018,15167.868349419812,0.0
65,6.023932903115628e+30,6140746.903322915,21765.11483624177,0.0
66,6.032421107542063e+30,6146785.990576867,20042.28475494212,0.0
67,6.018563955212559e+30,6138369.989522767,15793.724513661677,0.0
68,6.017709255568792e+30,6138170.700033867,13543.361185847514,0.0
69,6.017811885918804e+30,6138186.396747959,15216.870211498795,0.0
70,6.022594939202419e+30,6140096.637671451,13120.722374425575,0.0
71,6.017884174812614e+30,6138200.121115826,14737.725190798554,0.0
72,6.019239372743872e+30,6138597.396103297,15285.87224598923,0.0
73,6.024278444357527e+30,6141002.137219186,13667.776333777287,0.0
74,6.017734127673177e+30,6138173.929284957,13218.917016858297,0.0
75,6.020785624904846e+30,6139281.150376469,15754.981050272705,0.0
76,6.032957080864193e+30,6146142.108534901,15595.835328226949,0.0
77,6.018329467091849e+30,6138309.02080465,15279.2611448152,0.0
78,6.032886102695518e+30,6146184.32022467,13946.989796089718,0.0
79,6.018211317415931e+30,6138272.906607287,13776.942776184047,0.0
80,6.019106203989789e+30,6138553.781605304,13519.719007708682,0.0
81,6.017695438955983e+30,6138169.211133373,13540.75837557111,0.0
82,6.017707635669863e+30,6138170.498876019,13988.876002504296,0.0
83,6.025638900921119e+30,6141628.969343365,15075.66421660446,0.0
84,6.018564940235624e+30,6138370.649897305,15600.884207633862,0.0
85,6.01874517145735e+30,6138422.880724799,13646.908003825552,0.0
86,6.018213607840701e+30,6138273.163616531,15286.613711185048,0.0
87,6.018180773405943e+30,6138265.775635494,16299.285288596995,0.0
88,6.032005971944517e+30,6146322.348857667,26248.776478709253,0.0
89,6.01922902216836e+30,6138580.944591488,13199.040736365714,0.0
90,6.017688160432084e+30,6138168.602388409,13339.719172508696,0.0
91,6.03119015280204e+30,6145696.944928364,29004.943896829645,0.0
92,6.017746842144726e+30,6138175.683547013,13416.569592898806,0.0
93,6.018044424007248e+30,6138233.222962868,14491.616617838034,0.0
94,6.018831477121683e+30,6138449.64147985,14132.843965124735,0.0
95,6.018636962201413e+30,6138401.888851689,16855.4600221779,0.0
96,6.018737282218993e+30,6138429.4559863545,17743.413520105656,0.0
97,6.018437043307192e+30,6138341.569681047,15236.853377884952,0.0
98,6.017687868240397e+30,6138168.586717445,13266.903500880377,0.0
99,6.025134662257396e+30,6141354.366763009,13248.156552811348,0.0
100,6.018143120799114e+30,6138256.351879972,14785.300971025024,0.0
101,6.023016884496006e+30,6140321.7431389475,17571.338983649475,0.0
102,6.020464740754452e+30,6139133.0169850895,19921.025094811,0.0
103,6.023790765133214e+30,6140729.354552092,17769.997838300867,0.0
104,6.01778395756816e+30,6138181.674017883,14356.02550189157,0.0
105,6.01841901797284e+30,6138336.661476616,13306.713120735443,0.0
106,1115580897553573.2,19.270958807353182,1.3112323376619224e+24,1.0
107,6.017687879315035e+30,6138168.587313738,13237.544141344348,0.0
108,6.017961164923825e+30,6138214.8052796405,15186.776069237605,0.0
109,6.017762629086845e+30,6138178.071800687,14893.409476977587,0.0
110,6.0177406733646e+30,6138174.850963341,13974.306698401193,0.0
111,6.019283934654619e+30,6138598.267891255,18111.344359518338,0.0
112,6.018352955859541e+30,6138312.795956954,13642.625885646112,0.0
113,6.017687832937624e+30,6138167.1578551475,18727224.384049803,1.0
114,6.019187988454633e+30,6138586.893403424,16005.3103388388,0.0
115,6.017892395720292e+30,6138200.94754091,15030.222626784398,0.0
116,6.017845468634456e+30,6138192.268015312,14576.200949478622,0.0
117,6.023905463233606e+30,6140682.34895235,13330.014171193718,0.0
118,6.018348112257738e+30,6138309.701642026,14571.901137231207,0.0
119,6.029635450516937e+30,6144706.084544747,14303.649614508839,0.0
120,6.017894459919458e+30,6138201.880296837,13715.51447946622,0.0
121,6.017704737160181e+30,6138170.169581472,13926.045615081366,0.0
122,6.022703948648666e+30,6140055.920008285,19259.39353667118,0.0
123,6.020241708395057e+30,6138995.166375806,17789.496917031316,0.0
124,6.017687839162656e+30,6138168.585599942,13197.703505260102,0.0
125,6.017876551241556e+30,6138198.107838533,13386.904027155644,0.0
126,6.017688950717507e+30,6138168.653698259,13352.608576163966,0.0
127,6.019972024702514e+30,6138851.740387593,14065.815167361969,0.0
128,6.017965943760685e+30,6138215.704756385,14317.317389990025,0.0
129,6.028282326353053e+30,6143725.575847689,15050.806275245352,0.0
130,6.017699702179645e+30,6138169.63482105,13503.378143729058,0.0
131,6.017869715275948e+30,6138196.762071185,13531.104622640167,0.0
132,6.017696596831496e+30,6138169.321585063,13361.25088409006,0.0
133,6.018449602501242e+30,6138335.411576278,15873.732482920408,0.0
134,6.017688145622356e+30,6138168.601376692,13390.585547313307,0.0
135,6.017688762313838e+30,6138168.6407489125,13435.783861358575,0.0
136,6.01771297191391e+30,6138171.125880869,13807.290496616684,0.0
137,6.017688031545542e+30,6138168.595359686,13197.747689432908,0.0
138,6.018935569059821e+30,6138495.406963339,17061.593150032677,0.0
139,6.017760156154994e+30,6138177.6377972,13880.616494335536,0.0
140,6.017687835610377e+30,6138168.585588831,13145.010701404077,0.0
141,6.017687943248543e+30,6138168.590534465,13229.286209829388,0.0
142,6.019631364734521e+30,6138728.220134305,16163.842695958996,0.0
143,6.020965080128267e+30,6139287.141901965,20566.954659394316,0.0
144,6.021065054114182e+30,6139298.686007609,13421.383307174152,0.0
145,6.020153220634795e+30,6138980.428830892,17413.02645281666,0.0
146,6.017757212411185e+30,6138177.211615323,14763.13728633081,0.0
147,6.018401975771386e+30,6138325.13620291,15862.74290987826,0.0
148,6.017876482372347e+30,6138198.03228624,13244.604134250914,0.0
149,6.017726124374767e+30,6138172.790605813,13562.420665245889,0.0
150,6.025535427503529e+30,6141677.603229602,15469.375044976216,0.0
151,6.017819631805817e+30,6138187.565559032,13383.909178392067,0.0
152,6.018491568199393e+30,6138355.305798642,13701.841446189068,0.0
153,6.018738606851415e+30,6138422.09831534,17484.461567801056,0.0
154,6.022110784132456e+30,6139898.84536741,19395.91257043636,0.0
155,6.019973524651283e+30,6138853.193862266,13878.702596972415,0.0
156,6.018546862314424e+30,6138367.348467634,17093.12091518808,0.0
157,6.017760749573934e+30,6138177.842706047,14601.771964118027,0.0
158,6.026623600291087e+30,6142345.24768324,18663.815035122734,0.0
159,6.018726739932641e+30,6138421.585160069,14236.896265488218,0.0
160,6.019347964563839e+30,6138627.035224412,13360.945289019788,0.0
161,6.041559404854189e+30,6152874.578219585,23622.209721226616,0.0
162,6.017770558246597e+30,6138179.260362829,13766.920561788631,0.0
163,6.019789312670791e+30,6138835.753067035,13587.277315736957,0.0
164,6.017691052111069e+30,6138168.815501936,13231.171521372315,0.0
165,6.029440385383518e+30,6144199.220614476,13802.072147799445,0.0
166,9522131.286878679,0.03938350416425145,1.311232337733786e+24,1.0
167,6.025778845211529e+30,6141851.923149329,18454.626611123913,0.0
168,6.021653741220687e+30,6139588.373335108,15418.865602863529,0.0
169,6.027960610779032e+30,6143554.264976142,20312.886548500213,0.0
170,6.026393704730962e+30,6142018.676597166,13750.016715201264,0.0
171,6.017728226435381e+30,6138173.063448908,13643.042677971573,0.0
172,6.018538267848892e+30,6138370.568038938,13154.706988873993,0.0
173,6.017950428053589e+30,6138213.802460773,13537.641985822765,0.0
174,6.02591831503299e+30,6141912.65174334,22252.322416508527,0.0
175,6.017741446800263e+30,6138174.972684073,14605.210647942075,0.0
176,6.017688518790862e+30,6138168.624862723,13275.19440829749,0.0
177,6.020211175605892e+30,6138942.384844875,13575.40842864444,0.0
178,6.029022364948456e+30,6144233.472855167,24454.010944113106,0.0
179,6.019887029514355e+30,6138817.997974327,14322.487930098801,0.0
180,6.021253971184468e+30,6139428.966433123,17422.958096958988,0.0
181,6.018973707489278e+30,6138493.172212427,17392.025379699626,0.0
182,6.021286683992633e+30,6139516.37555032,15344.991961150725,0.0
183,6.018805741218966e+30,6138449.506882656,14037.643520604215,0.0
184,6.019017477640954e+30,6138517.09443367,18124.711062798626,0.0
185,6.018170233772342e+30,6138263.411830597,14364.128701797817,0.0
186,6.018046383929965e+30,6138235.302631007,16152.771646846719,0.0
187,6.017935242350235e+30,6138210.561489976,15237.879136191092,0.0
188,6.017721781924262e+30,6138172.284108238,14094.525195300916,0.0
189,6.019749457945317e+30,6138765.098247256,18126.36906314247,0.0
190,6.017769597336746e+30,6138179.160580339,14331.180274979288,0.0
191,6.017740024638088e+30,6138174.772261431,13154.123844044674,0.0
192,6.017695135093278e+30,6138169.177243623,13280.79694936269,0.0
193,6.02155404300343e+30,6139614.451895417,14351.524854527404,0.0
194,6.017990553565794e+30,6138221.065336732,13245.92333028915,0.0
195,6.019679339006792e+30,6138772.000488168,18914.321446865935,0.0
196,6.017752937925358e+30,6138176.601427567,13853.928171454292,0.0
197,6.017982339187545e+30,6138220.369869262,14363.38389894824,0.0
198,6.017690090904648e+30,6138168.7379662255,13316.449738508982,0.0
199,6.019615448477261e+30,6138714.559787318,18948.803622440282,0.0
200,6.092698927554434e+30,5772159.608786207,8.007831716384169e+20,0.0
201,6.017690402746237e+30,6138168.76245898,13160.421924205195,0.0
202,6.050219118981676e+30,6161656.669596187,80231.64513874205,0.0
203,6.024903591466301e+30,6141214.022956282,14596.306309085454,0.0
204,6.017690510970765e+30,6138168.7702459255,13739.617220112124,0.0
205,6.02032708577267e+30,6139023.0288591795,13830.028748114812,0.0
206,6.018682927855202e+30,6138413.27401289,17590.38043522818,0.0
207,6.018690964501235e+30,6138416.937786869,15237.493032395232,0.0
208,6.018117208880394e+30,6138250.239088034,13640.221377861384,0.0
209,6.017833458927295e+30,6138189.951437791,13121.671257372198,0.0
210,6.018340267854311e+30,6138305.634278617,13398.28102872192,0.0
211,6.031348943430845e+30,6145070.7589344885,15861.755670172475,0.0
212,6.018395342883362e+30,6138325.967522788,14317.710934261864,0.0
213,6.017717584782763e+30,6138171.687543447,14129.757301664831,0.0
214,6.017692120216998e+30,6138168.904942957,13866.340686512847,0.0
215,6.017687839585482e+30,6138168.585554046,13222.888860298805,0.0
216,6.039155314290521e+30,6151896.494996778,30746.347004802854,0.0
217,6.017692380391848e+30,6138168.92636928,13563.452526418056,0.0
218,6.017769117142141e+30,6138179.256467365,14352.681199094342,0.0
219,6.018664917572856e+30,6138400.160916217,15325.163137102814,0.0
220,6.031794734491865e+30,6145295.297278473,23736.486232992786,0.0
221,6.025438209901536e+30,6141917.49838289,17498.695907458747,0.0
222,6.017687941625208e+30,6138168.590491878,13212.073203387468,0.0
223,6.018457200320666e+30,6138347.75483654,13153.248453126507,0.0
224,6.055222902392003e+30,6166371.476545688,90556.10060509981,0.0
225,6.017740675479838e+30,6138174.851727476,13969.842806544015,0.0
226,6.028001667453075e+30,6143057.247478492,25468.509012459068,0.0
227,6.017697851543446e+30,6138169.44642152,13167.267215071744,0.0
228,6.020306223321481e+30,6138987.596778908,18428.59592956749,0.0
229,6.017724276047963e+30,6138172.554682427,14090.254570215535,0.0
230,6.017759812688506e+30,6138177.632842615,14050.180956377022,0.0
231,6.018007738351476e+30,6138225.983244765,13958.611926898284,0.0
232,6.02391203298448e+30,6140658.110531721,15777.271489318842,0.0
233,6.029366083013506e+30,6144567.195488555,19228.454784861737,0.0
234,6.02218789168491e+30,6139875.478813996,18081.14906732065,0.0
235,6.01820165767873e+30,6138270.254281521,13539.044191777608,0.0
236,6.018211670578841e+30,6138272.563793857,16583.746338898894,0.0
237,6.017929672798878e+30,6138208.2043584585,13832.111362756401,0.0
238,6.028573873201234e+30,6143840.638000163,26565.87420740373,0.0
239,6.017690498897175e+30,6138168.769661676,13587.724449292893,0.0
240,6.017740302543855e+30,6138174.730930953,13290.395157926425,0.0
241,6.019007601864769e+30,6138518.323607588,17265.699187799437,0.0
242,6.018105344805624e+30,6138248.869043219,13402.721892491973,0.0
243,6.018430495861848e+30,6138334.194356677,13549.468163668796,0.0
244,6.021668877105777e+30,6139609.691031489,14393.734147275412,0.0
245,6.01971982558563e+30,6138806.598575001,16635.819474800497,0.0
246,6.04532154283556e+30,6157096.025188064,20796.99545894428,0.0
247,6.017700220912872e+30,6138169.684179011,13346.293592844784,0.0
248,6.029598369500305e+30,6144508.137759042,15388.392355826647,0.0
249,6.017768935303124e+30,6138179.1245014565,13782.365930152466,0.0
250,6.018579160052227e+30,6138380.676023439,13560.42501096678,0.0
251,6.020751070641551e+30,6139194.336621445,17965.305954853626,0.0
252,6.017740738490695e+30,6138174.804725298,14099.662585696848,0.0
253,6.018123407700737e+30,6138252.289315527,15732.858092470788,0.0
254,6.017751048093326e+30,6138176.376630471,13662.254508456708,0.0
255,6.021956171880415e+30,6139828.281296371,14342.556316537326,0.0
256,6.01958967704061e+30,6138752.348457171,16646.510952596094,0.0
257,6.017694525071508e+30,6138169.119249497,13715.229943675997,0.0
258,6.018094925762164e+30,6138245.386667887,14333.849506355595,0.0
259,6.019681519285746e+30,6138739.46347211,15116.725389028124,0.0
260,6.017690163191315e+30,6138168.743671295,13341.84319044726,0.0
261,6.023642957510511e+30,6140750.190347905,14573.194296816811,0.0
262,6.02596311328495e+30,6141770.701024284,19278.608997225136,0.0
263,6.019094295357089e+30,6138532.640073029,14441.6468113882,0.0
264,6.017696543012706e+30,6138169.312361848,13741.307790825438,0.0
265,6.019950598896426e+30,6138875.188065557,19671.856508889206,0.0
266,6.019745764456328e+30,6138767.557822766,15124.718840298689,0.0
267,6.018512148545164e+30,6138357.420399288,17187.28874771858,0.0
268,6.021561573308994e+30,6139589.858106935,16469.27449831696,0.0
269,6.018205611985853e+30,6138272.349659871,15707.17223921033,0.0
270,6.017687873473063e+30,6138168.587152825,13190.83933283942,0.0
271,6.017688843027237e+30,6138168.646289053,13365.660625529126,0.0
272,6.028213860684989e+30,6143659.67609037,15550.705613701946,0.0
273,6.018685518678416e+30,6138404.0051070135,14349.651279031732,0.0
274,6.073152854678519e+30,6191508.031963382,47077.03937533428,0.0
275,6.017874212263631e+30,6138197.426768137,14324.515459599137,0.0
276,6.018337774272575e+30,6138309.09064787,15404.613886261297,0.0
277,6.017706960587454e+30,6138170.437467281,14121.039832112454,0.0
278,6.017745415385886e+30,6138175.443641835,13875.97810426047,0.0
279,6.018091928440995e+30,6138245.026538023,14677.61040094625,0.0
280,6.038683085419917e+30,6150993.434970624,26293.813104953682,0.0
281,6.022903685394923e+30,6140323.6818488175,19872.42362047393,0.0
282,6.017920254311613e+30,6138207.318828192,15358.921207998024,0.0
283,6.034865190020074e+30,6147417.550839955,15841.421326731077,0.0
284,6.018629517207672e+30,6138390.757194054,13902.993857429887,0.0
285,6.021803348589119e+30,6139644.363992398,19000.93765920761,0.0
286,6.017794066525205e+30,6138183.10865219,13897.222713750141,0.0
287,6.017712360894791e+30,6138171.084685433,13279.440520553093,0.0
288,6.022547294698554e+30,6140012.196347652,20203.64829647204,0.0
289,6.01853031414916e+30,6138364.922161761,14073.951346020898,0.0
290,6.017687850218741e+30,6138168.586127387,13175.657410429782,0.0
291,6.026499597492851e+30,6142412.364728411,26343.769091948183,0.0
292,6.020317773193265e+30,6139007.46733044,13125.018893454346,0.0
293,6.026692456440158e+30,6142286.020081645,27092.030294962482,0.0
294,6.018048823164659e+30,6138234.589724606,14116.959080061992,0.0
295,6.018128684433898e+30,6138253.481497374,14582.965380453792,0.0
296,6.047678540429905e+30,6158455.032037351,55788.551047707326,0.0
297,6.024808691908262e+30,6141199.055796001,17380.129878401793,0.0
298,6.021579615214452e+30,6139662.943750669,15269.858115474864,0.0
299,6.018019856567439e+30,6138228.212388205,14318.88971931328,0.0
300,6.019495051196965e+30,6138678.3102869885,16072.406148834762,0.0
301,6.017699479341413e+30,6138169.610559867,13678.379971064885,0.0
302,6.017898740286193e+30,6138202.833416059,14689.426892006093,0.0
303,6.018486266924701e+30,6138351.603137151,14390.759969380562,0.0
304,6.018341341304706e+30,6138308.934458986,15918.756048919107,0.0
305,6.024603365913907e+30,6141076.491197608,21576.292916490347,0.0
306,6.021192538745607e+30,6139350.732463779,15199.530041159185,0.0
307,6.03489440515388e+30,6147417.621680293,16258.963510743932,0.0
308,6.017699416267414e+30,6138169.601614574,13998.974177391898,0.0
309,6.027448826286925e+30,6142704.780812906,16368.579026087147,0.0
310,6.017723919695218e+30,6138172.566174872,14372.069881767404,0.0
311,6.017688628122512e+30,6138168.631270029,13579.949700783303,0.0
312,6.033296224441913e+30,6146240.976299595,20864.6470844523,0.0
313,6.017995730783871e+30,6138222.873292885,14526.146135931063,0.0
314,6.027132020539325e+30,6142907.75517313,15886.638930592839,0.0
315,6.017749739125091e+30,6138176.097041476,13762.317620072572,0.0
316,6.017753100245378e+30,6138176.722557236,14558.573251367565,0.0
317,6.025923282709565e+30,6141740.162364131,17683.71301670464,0.0
318,6.036860724092135e+30,6149404.603823958,31788.799998595743,0.0
319,6.020101958867023e+30,6138933.152352679,13295.959601980434,0.0
320,6.017688644374184e+30,6138168.633486491,13119.627928188616,0.0
321,6.018596510783175e+30,6138383.0559161855,16537.22989043942,0.0
322,6.017702384520927e+30,6138169.920965536,13947.115798055716,0.0
323,6.017801999863357e+30,6138184.647105389,14688.617565682185,0.0
324,6.026206881745542e+30,6142286.954962457,16106.07251313659,0.0
325,6.01768870505744e+30,6138168.636737545,13453.291325033122,0.0
326,6.017712759071488e+30,6138171.108363785,14104.957564371705,0.0
327,6.017822474363314e+30,6138188.216494101,13838.450070698142,0.0
328,6.027157701948826e+30,6142747.094373091,13694.444396312792,0.0
329,6.020638341360275e+30,6139168.372682094,17748.580474570164,0.0
330,6.017688304553797e+30,6138168.610737457,13464.468259664996,0.0
331,6.018843857625307e+30,6138466.9611134725,17195.680746118556,0.0
332,6.027722851686881e+30,6142772.385831233,18132.748836926257,0.0
333,6.018904435412757e+30,6138471.668871257,16138.63229782243,0.0
334,6.019492293048269e+30,6138672.937025738,15132.315573197362,0.0
335,6.01769270191614e+30,6138168.953673614,13751.025988318339,0.0
336,6.019536469046215e+30,6138707.503399593,13981.201148355822,0.0
337,6.017705154497472e+30,6138170.219847587,14079.375410536391,0.0
338,6.017688117802755e+30,6138168.599689215,13418.48554183148,0.0
339,6.018691184417523e+30,6138407.704279966,13262.480402878402,0.0
340,6.017688287923799e+30,6138168.610484341,13164.86933714315,0.0
341,6.017697503373341e+30,6138169.40646748,14038.547524305723,0.0
342,6.017688092323301e+30,6138168.598134319,13460.889089389922,0.0
343,6.020669527268361e+30,6139176.077900907,20585.178412924703,0.0
344,6.017772537159753e+30,6138179.561450487,13511.32072596593,0.0
345,6.046502078439307e+30,6155763.201329885,42987.06579464272,0.0
346,6.01777052379679e+30,6138179.24892432,13829.813685468444,0.0
347,6.019419503653558e+30,6138662.294525357,14325.645352217663,0.0
348,6.026496060084035e+30,6142141.519247092,16000.793954612298,0.0
349,6.018835540442881e+30,6138456.398370278,15731.580425489476,0.0
350,6.023907836956748e+30,6140658.883803882,15233.452921648475,0.0
351,6.021329468195124e+30,6139411.497427768,19210.459069339253,0.0
352,6.019662970279143e+30,6138757.346271885,13673.606726554155,0.0
353,6.017701832418153e+30,6138169.869135606,13597.616584411177,0.0
354,6.017857502927458e+30,6138194.1863934565,14225.335383062002,0.0
355,6.026034751803101e+30,6142256.666824149,19770.945030724986,0.0
356,6.01768783834853e+30,6138168.585447748,13245.054298241761,0.0
357,6.018628123970115e+30,6138388.551218711,13306.567656802856,0.0
358,6.01769067732187e+30,6138168.783391861,13646.508842236746,0.0
359,6.017687977846535e+30,6138168.592310998,13251.670141650739,0.0
360,6.018310148814423e+30,6138300.962827144,16384.232845139668,0.0
361,6.01848892417052e+30,6138348.886768542,14409.298756018303,0.0
362,6.019628210586639e+30,6138725.329455319,16540.71178777668,0.0
363,6.023527600202666e+30,6140735.773423846,17306.98348963504,0.0
364,6.017747744573017e+30,6138175.776219329,13225.123064479598,0.0
365,6.018371039736711e+30,6138318.229622665,15218.055480198716,0.0
366,6.017690475680064e+30,6138168.768609861,13210.122683789808,0.0
367,6.019185228131833e+30,6138563.393037581,13433.374115868728,0.0
368,6.017700218836649e+30,6138169.683777651,13383.61504232261,0.0
369,6.019076304852042e+30,6138536.179132576,13172.380133366674,0.0
370,6.02196276369316e+30,6139708.781737446,13837.477727318132,0.0
371,6.019963876242627e+30,6138848.870101104,17897.669124352302,0.0
372,6.021623972133258e+30,6139542.601739549,20728.17103304147,0.0
373,6.018912544949939e+30,6138493.312394768,13563.502811472783,0.0
374,6.032853179509876e+30,6146048.383753919,16512.106990048098,0.0
375,6.017687837240454e+30,6138168.585524296,13196.581883306606,0.0
376,6.017695478163272e+30,6138169.2115964955,13439.388674156065,0.0
377,6.034625877650862e+30,6147814.067512535,14237.183629065945,0.0
378,6.017837467868314e+30,6138190.849448909,13893.927545269547,0.0
379,6.021197283418523e+30,6139357.874968413,17408.17267699085,0.0
380,6.017700671664713e+30,6138169.735194607,14091.935654812632,0.0
381,6.017847344381763e+30,6138192.625176629,13239.157750596534,0.0
382,6.017688866524713e+30,6138168.647745829,13367.31012485054,0.0
383,6.022608862417224e+30,6140123.245900332,13554.822204782286,0.0
384,6.020395827079856e+30,6139015.604489076,13182.164124925006,0.0
385,6.017875509994521e+30,6138197.984873793,13398.884105924037,0.0
386,6.021628455341087e+30,6139553.0014249,17682.17525444139,0.0
387,6.023693930378331e+30,6140800.489354743,13864.723656361619,0.0
388,6.025883103948306e+30,6141839.430966575,24460.708288248978,0.0
389,6.017737338557555e+30,6138174.303805142,13196.15633139577,0.0
390,6.017723869370623e+30,6138172.534615357,14039.679152624443,0.0
391,6.017702194084766e+30,6138169.900483774,13307.80435060932,0.0
392,6.018667593293808e+30,6138412.767062162,13721.06782503676,0.0
393,6.017690189066126e+30,6138168.745024679,13489.50648115496,0.0
394,6.017977522408193e+30,6138218.155686008,14080.853154071032,0.0
395,6.020723354739888e+30,6139173.346476301,19817.544617097556,0.0
396,6.037746396409203e+30,6150860.95660368,37638.74466271269,0.0
397,6.017721748241394e+30,6138172.212764534,13825.197964259458,0.0
398,6.017730510769894e+30,6138173.395484907,14168.754563491222,0.0
399,6.017744644772385e+30,6138175.482696801,13862.144638591557,0.0
400,6.018228982154087e+30,6138277.7294161795,16029.400604993478,0.0
401,6.056139843919378e+30,6164600.047935169,13272.450303351907,0.0
402,6.020257681960587e+30,6138988.186541978,14036.152603379342,0.0
403,6.017688391619787e+30,6138168.616897509,13199.920400609315,0.0
404,6.023148086151776e+30,6140288.493643963,18151.825475462432,0.0
405,6.018467424765643e+30,6138340.426370035,14928.740071482864,0.0
406,6.017976859943905e+30,6138218.126439505,15117.957438195423,0.0
407,6.017740082593297e+30,6138174.680299399,14182.994231468567,0.0
408,6.03325357993265e+30,6146558.902798958,20269.965213399628,0.0
409,6.017807228969325e+30,6138185.428507955,13834.270308131176,0.0
410,6.019872583493973e+30,6138841.910239606,16255.157545082893,0.0
411,6.017752710536888e+30,6138176.593717547,13744.059515174731,0.0
412,6.029947122441087e+30,6144170.296297641,15867.142119938973,0.0
413,6.023514496852706e+30,6140567.539953857,23586.162628623635,0.0
414,6.027667364609125e+30,6142757.513359808,16262.9581614575,0.0
415,6.017866301610361e+30,6138195.897978666,14110.32211481812,0.0
416,6.021887533710043e+30,6139756.652379033,16167.756765234097,0.0
417,6.037319525705026e+30,6150456.776011313,29457.02747535451,0.0
418,6.017770190169851e+30,6138179.338117361,14714.963424980617,0.0
419,6.019468646211546e+30,6138702.527575296,16699.928047736335,0.0
420,6.02136193101203e+30,6139456.837637678,15038.284489471158,0.0
421,6.017695634604555e+30,6138169.229041091,13605.556112105893,0.0
422,6.019857541592966e+30,6138827.755908632,17272.54460515576,0.0
423,6.018587118207573e+30,6138376.525709418,13701.584209612956,0.0
424,6.018874421004187e+30,6138463.8605285995,17889.38316666319,0.0
425,6.017768754129081e+30,6138179.109320752,14828.619781862732,0.0
426,6.017695521730742e+30,6138169.213817401,13369.932294023723,0.0
427,6.02898917802549e+30,6143555.127799022,22471.384545102334,0.0
428,6.102672687642155e+30,6096977.245553742,3.1997839510214935e+19,0.0
429,6.017696194088445e+30,6138169.27709893,13847.48966252126,0.0
430,6.018155731425462e+30,6138261.349601715,14415.383801461117,0.0
431,6.018989627455696e+30,6138518.469496043,17042.61149151902,0.0
432,6.018311554400233e+30,6138303.914644806,14689.129777364124,0.0
433,6.017860832483272e+30,6138194.840917665,15046.827930494062,0.0
434,6.01894232906743e+30,6138493.418540799,13432.584598390386,0.0
435,6.017689178038576e+30,6138168.669367841,13513.503122469294,0.0
436,6.017687880608956e+30,6138168.587105038,13344.795249365745,0.0
437,6.02117956729187e+30,6139429.077669696,19243.74210679546,0.0
438,6.018103644411077e+30,6138246.697289384,14927.324265965319,0.0
439,6.021330333390837e+30,6139412.002901341,21051.273911609333,0.0
440,6.024992555035177e+30,6141349.341467124,17116.892061696304,0.0
441,6.023086928921789e+30,6140403.486033233,15701.57400572455,0.0
442,6.025322257109104e+30,6141816.1880908655,18700.821817562166,0.0
443,6.020000648645105e+30,6138880.157955216,17849.68043826865,0.0
444,6.018411942288314e+30,6138325.165053601,15842.443874442139,0.0
445,6.017688285015244e+30,6138168.610145256,13243.332091465065,0.0
446,6.017947328859994e+30,6138212.422860878,15660.85962083186,0.0
447,6.028352210069597e+30,6143790.898172558,14585.98439846281,0.0
448,6.017689105372059e+30,6138168.663710068,13645.646428591679,0.0
449,6.017708205836674e+30,6138170.562317727,14017.223949174555,0.0
450,6.031475616614631e+30,6145085.439253535,18416.07387283426,0.0
451,6.018105796651444e+30,6138249.295514526,13584.475701142217,0.0
452,6.01768931262984e+30,6138168.678694427,13615.021650188586,0.0
453,6.022018411422677e+30,6139796.441360851,13479.797537807224,0.0
454,6.022528585523369e+30,6139983.1621634355,18802.570557418607,0.0
455,6.01955118326019e+30,6138693.250625555,17878.77986536888,0.0
456,6.020509900930668e+30,6139083.3196815355,19863.799099970274,0.0
457,6.017806322637049e+30,6138185.086121749,14934.700637601816,0.0
458,6.017753665714451e+30,6138176.741188644,14479.480758895963,0.0
459,6.017692514981329e+30,6138168.938784421,13622.881453068025,0.0
460,6.025562981668525e+30,6142020.714844229,16417.847306447493,0.0
461,6.01772361084819e+30,6138172.4687955165,13981.873812401001,0.0
462,6.019994340474908e+30,6138914.5012550345,17234.292927200993,0.0
463,6.054334251118164e+30,6164375.274318713,55200.28950211109,0.0
464,6.017814104330965e+30,6138186.384048054,15116.29038390092,0.0
465,6.02668530737735e+30,6142730.989132451,26014.28827214626,0.0
466,6.027264282626459e+30,6142505.7110934155,28436.807139232522,0.0
467,6.018733789367962e+30,6138426.841595176,13423.648781551168,0.0
468,6.037760188425568e+30,6149635.137313415,19898.808631436725,0.0
469,6.019677006238481e+30,6138737.266916632,16796.733998644042,0.0
470,6.020085481040203e+30,6138958.168780108,13605.303856685772,0.0
471,6.017714119174031e+30,6138171.264092714,13596.10477185754,0.0
472,6.017688290142897e+30,6138168.610501335,13222.545854956314,0.0
473,6.01831351958879e+30,6138305.209987729,14380.746653109469,0.0
474,6.017742354358989e+30,6138175.142996253,13284.0471569959,0.0
475,6.018993980966155e+30,6138523.798703944,17519.229716891226,0.0
476,6.018983642326795e+30,6138499.348017416,14868.395193140583,0.0
477,6.018876200435706e+30,6138465.152653009,17543.41741323602,0.0
478,6.018042127434972e+30,6138233.355189546,15405.748150551277,0.0
479,6.01768792106393e+30,6138168.58957471,13157.376496019744,0.0
480,6.01918320441788e+30,6138562.355861347,13999.476344850278,0.0
481,6.01918583154846e+30,6138563.770676419,13301.214377405002,0.0
482,6.017934047512095e+30,6138209.147294784,13116.226937506557,0.0
483,6.017688732162196e+30,6138168.639006361,13211.663443774476,0.0
484,6.018428053944464e+30,6138330.847938506,16423.815396755734,0.0
485,6.026077799379314e+30,6141909.354070312,23231.61110482386,0.0
486,6.024617426952928e+30,6141097.904162143,22171.045612419504,0.0
487,6.018783292373491e+30,6138450.100121293,13172.518066647403,0.0
488,6.018062247537037e+30,6138237.004856852,15000.889434704903,0.0
489,6.019626219883826e+30,6138756.262957151,15032.590637763367,0.0
490,6.020152376608991e+30,6138933.933785936,18905.461433834622,0.0
491,6.018409549847012e+30,6138326.1546349935,14703.339167550366,0.0
492,6.020764034000161e+30,6139265.645770778,16614.350103088997,0.0
493,6.017696854196745e+30,6138169.343017605,13253.41633817695,0.0
494,6.024208261435573e+30,6140811.152815676,23397.72994395414,0.0
495,6.021802383329939e+30,6139642.819707262,18905.428086818196,0.0
496,6.017708209075198e+30,6138170.5824593725,13690.995728396536,0.0
497,6.042867540526335e+30,6152972.777730437,49070.68169242906,0.0
498,6.017729929892323e+30,6138173.3112118,13621.079245291785,0.0
499,6.02490110082917e+30,6141210.824514296,14520.699740174892,0.0
500,5.993684180551294e+30,5769057.427863692,6.437559974401341e+20,1.0
501,6.02558970509709e+30,6141765.87202886,13994.274205267191,0.0
502,6.017691609337153e+30,6138168.861192926,13169.843183351775,0.0
503,6.01780104422747e+30,6138184.264192746,13629.987617205077,0.0
504,6.017814533991321e+30,6138187.017592211,13548.792349707534,0.0
505,6.021093565664748e+30,6139334.700225031,15090.049051794596,0.0
506,6.017688389570612e+30,6138168.616881032,13126.296821649748,0.0
507,6.018060264711815e+30,6138236.909405699,14365.910016944457,0.0
508,6.02270470781035e+30,6140059.801110588,18732.553785403325,0.0
509,6.020053268173888e+30,6138897.24669307,16252.209016353707,0.0
510,6.023763906831781e+30,6140865.911612633,24308.706802778885,0.0
511,6.017830161594979e+30,6138189.770278978,14188.399287530454,0.0
512,6.017968844300015e+30,6138216.9298809,15332.317537459527,0.0
513,6.022201567336528e+30,6139892.45674624,17487.78364195005,0.0
514,6.01768901291346e+30,6138168.657482534,13623.835753552892,0.0
515,6.020399499978574e+30,6139017.854696789,18308.860118644454,0.0
516,6.018175951807295e+30,6138264.65008453,16525.25437599353,0.0
517,6.017814919601688e+30,6138186.655284412,13938.336362992935,0.0
518,6.019447624636316e+30,6138658.449030418,14084.418053009176,0.0
519,6.018458164336442e+30,6138340.51862709,13751.956554887041,0.0
520,6.018867349707952e+30,6138459.344790998,14421.26976696581,0.0
521,6.017688826179197e+30,6138168.644637437,13513.365710425605,0.0
522,6.018186702636151e+30,6138269.244518475,14660.04122151968,0.0
523,6.020926094861102e+30,6139308.737906277,19209.74642582865,0.0
524,6.019182207007838e+30,6138564.91456641,15842.700636576892,0.0
525,6.032855596097674e+30,6146255.060353335,36032.10713877143,0.0
526,6.018661739292442e+30,6138409.083155029,14615.058005447281,0.0
527,6.017741706830388e+30,6138174.925890524,13210.655257996592,0.0
528,6.019889179403079e+30,6138816.52324493,18834.550308016864,0.0
529,6.017692813191155e+30,6138168.9649901,13166.728874034432,0.0
530,6.020465116046703e+30,6139087.6402242705,20339.433263011608,0.0
531,6.017688387958334e+30,6138168.61592545,13473.47254531313,0.0
532,6.0184094099563e+30,6138325.925862491,14600.855348332865,0.0
533,6.017863092737545e+30,6138195.333147473,13227.159121135352,0.0
534,6.018781416210763e+30,6138447.9297865955,17685.12689218488,0.0
535,6.017697763413955e+30,6138169.436849507,13782.040281528063,0.0
536,6.017736659419884e+30,6138174.289425597,14362.334615020307,0.0
537,6.017894161739792e+30,6138201.737364669,13872.956414619111,0.0
538,6.017946033222992e+30,6138211.824200408,13599.768923966863,0.0
539,6.019499020299326e+30,6138674.179696456,17886.68877157975,0.0
540,6.018986414046207e+30,6138501.456534018,14465.399065816906,0.0
541,6.018589533660347e+30,6138378.159000603,13302.159688165826,0.0
542,6.017688472119854e+30,6138168.62116223,13517.777267889694,0.0
543,6.021694919216284e+30,6139662.147126651,17772.591166896473,0.0
544,6.017772995231921e+30,6138179.627839792,13761.168827985613,0.0
545,6.041143128276113e+30,6151967.891285889,27020.255229101283,0.0
546,6.019435658966489e+30,6138649.717056282,16573.22940552148,0.0
547,6.017876482404054e+30,6138198.032323489,13244.67864227582,0.0
548,6.018532047922974e+30,6138360.717559392,13932.139741013227,0.0
549,6.036837036466865e+30,6149086.104013773,39913.96024104893,0.0
550,6.032307194500329e+30,6145612.859442835,31475.101010803635,0.0
551,6.029992165092404e+30,6144895.424143904,25329.806525565487,0.0
552,9.604075860005427e+16,85.09188817652748,1.3112323363321403e+24,1.0
553,6.017687834252853e+30,6138168.585402715,13197.9614802349,0.0
554,6.018265235466358e+30,6138288.284084073,14450.144509414054,0.0
555,6.019409674996372e+30,6138676.738934737,13799.51144719027,0.0
556,6.017753069905693e+30,6138176.70290138,14465.623023933096,0.0
557,6.01768792627595e+30,6138168.589669913,13224.178956862617,0.0
558,6.021472996143064e+30,6139474.62936715,15929.304424922422,0.0
559,6.017696475681908e+30,6138169.304191501,13905.930532732744,0.0
560,6.023710488112704e+30,6140816.320938302,13656.763389140899,0.0
561,6.017883144029252e+30,6138199.620667384,15320.115173856666,0.0
562,6.023595597192512e+30,6140730.861016736,14774.154702507223,0.0
563,6.029779071576074e+30,6144117.705875959,16780.741881646514,0.0
564,6.017694614297916e+30,6138169.129025094,13751.05414928758,0.0
565,6.017730258110997e+30,6138173.329983488,13661.884174609999,0.0
566,6.01768847037105e+30,6138168.621234962,13480.057013075662,0.0
567,6.018399327987146e+30,6138330.032487585,15093.083728490103,0.0
568,6.017690994042104e+30,6138168.810932433,13440.539158155756,0.0
569,6.018376822041367e+30,6138315.81789109,15755.81759029668,0.0
570,6.022926148614785e+30,6140346.569717561,19329.4053411399,0.0
571,6.019348980910776e+30,6138627.914960964,13265.867179551205,0.0
572,6.017703737303687e+30,6138170.068184361,13883.700433093582,0.0
573,6.017689610563853e+30,6138168.700489013,13663.041938304477,0.0
574,6.017697675616534e+30,6138169.429072804,13350.081461463102,0.0
575,6.018351692821768e+30,6138311.975164744,13862.578600027315,0.0
576,6.020213343415191e+30,6138942.35615739,18786.431225400025,0.0
577,6.053006871183627e+30,6165022.919320167,18775.262817455514,0.0
578,6.018113429444987e+30,6138248.701929307,15703.791613520068,0.0
579,6.01844749485079e+30,6138334.81639476,17115.843834375497,0.0
580,6.018103743341686e+30,6138247.016584466,15366.26695458364,0.0
581,6.019306863896943e+30,6138640.028510068,14200.25157409827,0.0
582,6.017687838900921e+30,6138168.585499108,13233.548343850684,0.0
583,6.017907126981032e+30,6138203.695032659,13485.150847452896,0.0
584,6.017718281837115e+30,6138171.776194873,14099.566479709963,0.0
585,6.021235606523349e+30,6139407.445236065,18496.755563627317,0.0
586,6.017712060926471e+30,6138171.0273580365,13458.365456925185,0.0
587,6.020438794293741e+30,6139060.520418732,14282.264929326899,0.0
588,6.019492190174433e+30,6138672.682185099,15072.493060747276,0.0
589,6.017687356357562e+30,6133359.552726632,1.073482697798193e+16,1.0
590,6.017688331301022e+30,6138168.613093058,13183.633665431948,0.0
591,6.019101968696861e+30,6138548.016962028,18327.742799644642,0.0
592,6.017815902281403e+30,6138187.058320616,15187.895887753657,0.0
593,6.02042673520591e+30,6139069.700016933,17437.105319092036,0.0
594,6.02094721242167e+30,6139252.360589689,13470.035225859303,0.0
595,6.017687918834883e+30,6138168.588956354,13359.428215153855,0.0
596,6.019886876053833e+30,6138815.407407085,13285.486160756504,0.0
597,6.021074403033474e+30,6139310.446795789,16736.582247779832,0.0
598,6.057006014925363e+30,6169128.061288747,68438.6152341605,0.0
599,6.019106448692987e+30,6138554.107157448,13545.536013749208,0.0
600,6.017689312257223e+30,6138168.679837031,13190.102623188182,0.0
601,6.01853249600796e+30,6138358.592364053,16134.340626444331,0.0
602,6.017688108215158e+30,6138168.599205655,13391.28412024722,0.0
603,6.017711033433127e+30,6138170.9270138275,13267.931683157469,0.0
604,6.017883497809352e+30,6138199.252860119,15096.776195152255,0.0
605,6.021253403631125e+30,6139428.316996279,17452.405257344613,0.0
606,6.019459667325678e+30,6138669.040353738,18733.366618182434,0.0
607,6.018169107331506e+30,6138266.355053694,13407.206270760315,0.0
608,6.017712764150816e+30,6138171.109828248,14075.953494966241,0.0
609,6.018641694547395e+30,6138405.335906691,16328.98408467997,0.0
610,14381121486.07584,0.4518565184152894,1.311232337733786e+24,1.0
611,6.017096815703577e+30,6054883.971185754,1.3835531852335383e+19,1.0
612,6.022712733189556e+30,6140079.673208251,17145.396383807332,0.0
613,6.017898080153392e+30,6138202.5133546945,15051.003997030817,0.0
614,6.017687835830617e+30,6138168.58553401,13170.249441731885,0.0
615,6.019745272542146e+30,6138766.562187591,14963.159688718551,0.0
616,6.019511216050733e+30,6138703.154402945,18516.20011780395,0.0
617,6.035682948510924e+30,6149251.17361574,33502.33328404252,0.0
618,6.017718049661389e+30,6138171.752051613,13850.70919511436,0.0
619,6.018467402526381e+30,6138340.43553035,14953.944296334075,0.0
620,6.021650893315033e+30,6139586.074466287,15405.300401699536,0.0
621,6.017824966620493e+30,6138188.463242922,15161.214514377973,0.0
622,8.028786064291168e+23,17269.849652857236,1.3111746029886818e+24,1.0
623,6.018293033808386e+30,6138294.349177411,13482.249486735982,0.0
624,6.01853658508916e+30,6138366.580168172,15370.273366670925,0.0
625,6.022704283559433e+30,6140052.349206994,20059.231839654676,0.0
626,6.01769116272637e+30,6138168.824333868,13363.680334837873,0.0
627,6.018060942945978e+30,6138236.517772627,15886.437570500337,0.0
628,6.017688781191387e+30,6138168.641757028,13455.594236941932,0.0
629,6.039110576999214e+30,6151864.907042041,30926.184572371945,0.0
630,6.029269094752707e+30,6143911.3463100605,28592.362930194424,0.0
631,6.019682965941621e+30,6138740.629720933,14838.371160406765,0.0
632,6.018768940301561e+30,6138428.687095069,13116.305709537492,0.0
633,6.017854081489977e+30,6138193.863174145,15455.611702209,0.0
634,6.017829860834715e+30,6138189.434867928,15284.792917222803,0.0
635,6.017718658976836e+30,6138171.823345503,13123.9994228931,0.0
636,6.01769394815948e+30,6138169.070339215,13459.28972325577,0.0
637,6.018356095765846e+30,6138310.189108127,15956.74209770478,0.0
638,6.019140471472573e+30,6138548.391910751,16015.043874423698,0.0
639,6.017929201598853e+30,6138208.354502114,15231.034842275532,0.0
640,6.039426169889659e+30,6150968.360391403,38435.55209844047,0.0
641,6.021605794100531e+30,6139636.883734423,15030.980043769858,0.0
642,6.021074953777558e+30,6139315.080383807,14746.731954792926,0.0
643,6.018236937598607e+30,6138279.103494729,13192.922524450307,0.0
644,6.018048719167501e+30,6138234.5357930865,14155.674725478391,0.0
645,6.035640962062551e+30,6147822.71312817,25089.821842885023,0.0
646,6.021062081490313e+30,6139293.746175973,19740.963710373155,0.0
647,6.024175456056181e+30,6141094.857399261,15199.381093586251,0.0
648,6.017808704195664e+30,6138185.572406083,13250.290369412947,0.0
649,6.018086274130925e+30,6138242.331639992,13993.734527585986,0.0
650,6.01774818963161e+30,6138175.898182468,13585.989293895776,0.0
651,6.017783614495291e+30,6138181.354638868,14890.56660978318,0.0
652,6.022937555555418e+30,6140169.608060642,17538.588019444054,0.0
653,6.032030283189012e+30,6145722.889696893,20416.024939413255,0.0
654,6.017687904905394e+30,6138168.588640602,13204.766032387059,0.0
655,6.018779641561381e+30,6138445.857076332,17427.93931685703,0.0
656,6.017694485864272e+30,6138169.116818856,13859.261747119188,0.0
657,6.017814016385163e+30,6138186.640342799,14949.519166388147,0.0
658,6.019187589830397e+30,6138574.049571881,17507.747483076542,0.0
659,6.022822213628889e+30,6140333.462618675,22644.525337414634,0.0
660,6.021332826248244e+30,6139415.632910743,13254.192727629006,0.0
661,6.036378714716148e+30,6149732.100311523,29633.673566495672,0.0
662,6.0176988143002e+30,6138169.538123307,13665.740690332075,0.0
663,6.023909298626142e+30,6140695.461770307,24379.41069253234,0.0
664,6.018416958049698e+30,6138334.563382886,16946.40411886813,0.0
665,6.01943477937206e+30,6138650.685853085,17658.82018051738,0.0
666,6.028410316249101e+30,6143210.234745271,14688.217957908644,0.0
667,6.017722557142701e+30,6138172.318636689,13902.599536824095,0.0
668,6.021781767495889e+30,6139616.678816255,14609.611619770843,0.0
669,6.019852071665336e+30,6138851.637003285,15827.670561593939,0.0
670,6.029984980993999e+30,6144167.632028857,16872.420688738483,0.0
671,6.022538470724414e+30,6140026.787335912,19899.328213584013,0.0
672,6.018867630627367e+30,6138465.035921972,17872.912444835467,0.0
673,6.018265376674906e+30,6138286.10997233,15375.319899590573,0.0
674,6.017984630341669e+30,6138219.83893699,14581.39924867357,0.0
675,6.017869747019889e+30,6138196.4607784925,14569.871730693447,0.0
676,6.017874008012572e+30,6138198.175853071,13293.006948559128,0.0
677,6.017829672779736e+30,6138189.210417363,14528.921141084946,0.0
678,6.017691874966426e+30,6138168.883386841,13669.49375491952,0.0
679,6.026677599791333e+30,6142445.734806263,19783.423193863127,0.0
680,6.017687834063005e+30,6138168.585456239,13173.742593931202,0.0
681,6.021062060229061e+30,6139293.7753840545,20174.711329138743,0.0
682,6.023123332806128e+30,6140508.383765748,15444.615465296632,0.0
683,6.019858258049806e+30,6138860.900183631,16208.672112040855,0.0
684,6.017725650896022e+30,6138172.7277829,14429.461715763975,0.0
685,6.017742207371945e+30,6138174.987348709,13371.846787299608,0.0
686,6.028898244620892e+30,6143475.299008435,20425.30602533443,0.0
687,6.017938956025484e+30,6138210.45786721,15233.374705756072,0.0
688,6.017687862195493e+30,6138168.586582058,13208.983403925828,0.0
689,6.017698405315914e+30,6138169.500779597,13784.952282631753,0.0
690,6.018428800379998e+30,6138332.029949648,16984.145368111822,0.0
691,6.017574266949675e+30,6095154.640379637,2.608769482745762e+18,1.0
692,6.019519828475227e+30,6138715.468984148,13327.497044163087,0.0
693,6.017814351451914e+30,6138186.452856385,14667.013262231063,0.0
694,6.031570010676172e+30,6145512.813386775,20866.425168700735,0.0
695,6.018211249403014e+30,6138275.738878913,14326.23857753287,0.0
696,6.018113150059558e+30,6138249.182477106,13557.537333289993,0.0
697,6.023253422729442e+30,6140416.277984234,16933.613786023983,0.0
698,6.021262163399757e+30,6139438.240269404,17018.719723866176,0.0
699,6.026235635829397e+30,6142317.284236867,15775.050318027093,0.0
700,6.017982823941615e+30,6138219.479538253,13794.64873021456,0.0
701,6.042238385356913e+30,6153518.9526047,33381.99918010863,0.0
702,6.022843813018241e+30,6140259.1029430665,21620.88640750982,0.0
703,6.017687169482427e+30,6132677.955590275,1.4956310514197856e+16,1.0
704,6.01768792083326e+30,6138168.589332031,13248.701321876137,0.0
705,6.017692266139048e+30,6138168.916670286,13624.087195293812,0.0
706,6.017688870929273e+30,6138168.648211933,13311.729300234645,0.0
707,6.019328236625157e+30,6138615.271589107,18643.768824874373,0.0
708,6.025100548810248e+30,6141556.22126292,19957.874037782112,0.0
709,6.020339349277806e+30,6139016.1716151005,18144.753613203717,0.0
710,6.01860970943601e+30,6138382.436852019,16182.825984849067,0.0
711,6.017798725737874e+30,6138183.789439397,13448.606623302172,0.0
712,6.017705084457648e+30,6138170.225749176,13633.685061143946,0.0
713,6.022330964987267e+30,6139887.264628987,14124.5390558352,0.0
714,6.017709717948016e+30,6138170.753892265,13435.65675789628,0.0
715,6.017854428646726e+30,6138194.160720239,13580.998856730344,0.0
716,6.048904869741787e+30,6158269.440806992,20001.089835682797,0.0
717,6.019229521650671e+30,6138578.07562997,16798.216984285944,0.0
718,6.020754860452204e+30,6139257.530900238,16898.58221507405,0.0
719,6.025567658362158e+30,6141732.23345616,14505.492577970743,0.0
720,6.017786839430059e+30,6138182.110935128,14350.201940197876,0.0
721,6.017690804283755e+30,6138168.7937444,13783.578385013283,0.0
722,6.017791976184614e+30,6138183.056269358,14733.189440901904,0.0
723,6.019136668481202e+30,6138548.012202648,18260.43070693592,0.0
724,6.017691719941124e+30,6138168.869578257,13448.386178492286,0.0
725,6.018988834165121e+30,6138520.754372479,13216.287399174049,0.0
726,6.018488370932861e+30,6138348.006423071,14089.711793639759,0.0
727,6.018086150795402e+30,6138243.472431787,16285.328022363965,0.0
728,6.018392882284936e+30,6138323.203271845,13652.005408468605,0.0
729,6.027112215970753e+30,6142887.31373969,16081.994400387804,0.0
730,6.017812377307037e+30,6138186.600296002,14645.81667552456,0.0
731,6.03360764761523e+30,6147467.414529529,19010.345429641697,0.0
732,6.018615347718301e+30,6138386.250162651,15097.068219025561,0.0
733,6.019926987532272e+30,6138882.991579124,19300.609096401393,0.0
734,6.020733054285955e+30,6139237.796882179,17638.186832061438,0.0
735,6.033679475864874e+30,6147694.194643434,23596.031754488075,0.0
736,6.020722830122822e+30,6139161.889240907,20522.33140953542,0.0
737,6.020422324626779e+30,6139062.304991523,17080.24677229594,0.0
738,6.020641001092342e+30,6139202.801799662,13572.447806638691,0.0
739,6.017759244717864e+30,6138177.519248745,14586.604186478058,0.0
740,6.018189534221965e+30,6138267.203592767,15456.127582539753,0.0
741,6.052828340371873e+30,6164777.14267455,20031.985159936507,0.0
742,6.018122794968755e+30,6138251.269805606,14752.310880166222,0.0
743,6.017687834207923e+30,6138168.585535254,13144.551670630635,0.0
744,6.017880519465154e+30,6138199.1840489935,15088.148805109047,0.0
745,6.023198678966957e+30,6140380.269652561,14484.841500650644,0.0
746,6.033739054159225e+30,6146881.093586561,21278.30931635073,0.0
747,6.01768788866494e+30,6138168.587851495,13202.791889334605,0.0
748,6.034885577992447e+30,6147417.336275964,16134.651159687332,0.0
749,6.035981404105233e+30,6148989.321421744,25929.280341851518,0.0
750,6.01909353878721e+30,6138534.380280539,15799.14624705973,0.0
751,6.023366665408979e+30,6140667.900046383,21587.74961041792,0.0
752,6.018831441833704e+30,6138449.52024528,14083.74577404014,0.0
753,6.017687855843689e+30,6138168.586499153,13127.679898740209,0.0
754,6.017687833650205e+30,6138168.585454548,13168.150474125927,0.0
755,6.026387790939151e+30,6142012.97957437,13612.063896682455,0.0
756,6.018113366400061e+30,6138249.548351401,13888.095786609856,0.0
757,6.020609169164694e+30,6139118.492363403,15257.235142279014,0.0
758,6.02127482862097e+30,6139494.440264712,14897.10621455057,0.0
759,6.019016152835962e+30,6138507.559742459,13531.916955510122,0.0
760,6.023376958948501e+30,6140592.163083222,19988.004817963087,0.0
761,6.020611696797393e+30,6139112.6560881445,16597.39500483899,0.0
762,6.027167950814455e+30,6142766.966697277,13831.68301481083,0.0
763,6.017687863706236e+30,6138168.586644003,13211.929985441457,0.0
764,6.017779407825304e+30,6138180.797034457,14911.863851505332,0.0
765,6.017716551709167e+30,6138171.576968429,14427.480317622263,0.0
766,6.022539312551573e+30,6139999.417530366,19635.050506793646,0.0
767,6.020403425029777e+30,6139022.006591223,17500.15914035951,0.0
768,6.020132718829185e+30,6138913.695496837,14129.786374041936,0.0
769,6.021084243005059e+30,6139400.464108294,14089.663703123033,0.0
770,6.018734261718646e+30,6138427.196174163,13374.841604719368,0.0
771,6.018091531073707e+30,6138244.806639797,14804.107773996175,0.0
772,6.019446985656377e+30,6138671.890162807,14771.80187112059,0.0
773,6.017895329771069e+30,6138202.026271968,14477.78027850085,0.0
774,6.01795651115854e+30,6138214.001709723,13413.651494520895,0.0
775,6.092350109016393e+30,6066298.386431063,3.628440412073335e+19,0.0
776,6.01771077388018e+30,6138170.861859802,13833.768618835222,0.0
777,6.017818217910047e+30,6138187.105575453,13220.585498756958,0.0
778,6.018769681255185e+30,6138433.043421637,15318.758619480906,0.0
779,6.018663109619297e+30,6138398.918263716,15659.872139916388,0.0
780,6.029391295665227e+30,6144111.63267488,13321.63955152499,0.0
781,6.017688612818528e+30,6138168.630938939,13290.732861615625,0.0
782,6.017709790587408e+30,6138170.773455966,14295.34762627455,0.0
783,6.018560241768569e+30,6138374.184229664,13331.44943079095,0.0
784,6.021293790596466e+30,6139472.495470097,15734.070459146677,0.0
785,6.032441385036097e+30,6146801.884051661,19949.649684331245,0.0
786,6.021794513938375e+30,6139630.622560098,18048.69414749738,0.0
787,6.032106277938832e+30,6146538.299905007,27568.258076113976,0.0
788,6.017887585978459e+30,6138200.424952884,14592.437320484596,0.0
789,6.020642652453422e+30,6139147.621152137,14222.4046658106,0.0
790,6.022920353911373e+30,6140157.309937212,15279.410348259422,0.0
791,6.040262963915699e+30,6151071.336888422,18876.10719398797,0.0
792,6.017701843001471e+30,6138169.872182711,13493.533449891944,0.0
793,6.018079439408358e+30,6138241.048311596,14570.76336456784,0.0
794,6.042019946783399e+30,6152342.713986187,38362.090259247765,0.0
795,6.017780700226586e+30,6138180.835736944,14579.149906190962,0.0
796,6.017689487829237e+30,6138168.692855982,13185.780856917234,0.0
797,6.064802272969101e+30,6175513.495123258,31535.371577046026,0.0
798,6.018212428278203e+30,6138272.703466422,15930.324012819492,0.0
799,6.017693320445307e+30,6138169.009660498,13301.618389494643,0.0
800,6.019656720001245e+30,6138751.648824186,14053.766221663009,0.0
801,6.018269228404928e+30,6138287.990256697,13931.632876716412,0.0
802,6.0177484396769e+30,6138175.987896889,13116.038407764969,0.0
803,6.020325165012981e+30,6139001.076062438,19444.854988243344,0.0
804,4.1148994220069714e-07,1.382046667888795e-06,1.311232337733786e+24,1.0
805,6.019991520405881e+30,6138912.054547113,17363.982354568587,0.0
806,6.022404914982645e+30,6140007.590285524,22452.063630366145,0.0
807,6.020711858440465e+30,6139148.762101734,14062.479376657033,0.0
808,6.017848515334798e+30,6138193.15341715,14721.253483395325,0.0
809,6.021211119606668e+30,6139376.730739415,20600.047848820104,0.0
810,6.020211257996401e+30,6138942.639862964,13643.21786860191,0.0
811,6.017911544944627e+30,6138205.547984292,15528.263806162988,0.0
812,6.018824397822686e+30,6138455.043890264,15577.061426913631,0.0
813,6.017460336881508e+30,6081356.402858523,5.259814859869532e+18,1.0
814,6.017720189820674e+30,6138172.014382078,13882.612352054904,0.0
815,6.01768797997193e+30,6138168.592578445,13185.80081827637,0.0
816,6.018614070563486e+30,6138395.762674474,14390.06385738107,0.0
817,6.017829670086381e+30,6138189.191510907,14426.697066526489,0.0
818,6.020512712273952e+30,6139088.109473375,20215.45396013525,0.0
819,6.018225223605936e+30,6138278.091054618,13223.562972043132,0.0
820,6.021000831627734e+30,6139350.115104455,14579.714952534841,0.0
821,6.02375381099886e+30,6140662.034025291,16521.859122596954,0.0
822,6.01858999310967e+30,6138387.892082551,16223.851116027085,0.0
823,6.017757738298066e+30,6138177.281610875,13852.418845668586,0.0
824,6.018236872994762e+30,6138279.251427035,13418.069130237545,0.0
825,6.019964817070884e+30,6138845.320815431,15375.751752195705,0.0
826,6.017840409245856e+30,6138191.052942338,14829.225691658236,0.0
827,6.017719224289094e+30,6138171.912963587,13902.229611836061,0.0
828,6.017694047507923e+30,6138169.075505348,13401.107141987935,0.0
829,6.01769439938067e+30,6138169.110721896,13121.006735905947,0.0
830,6.018657590802935e+30,6138401.145434599,16562.144698601533,0.0
831,6.01897313612312e+30,6138495.362256214,13857.251770561199,0.0
832,6.01825026773197e+30,6138282.9217507085,15348.19799710724,0.0
833,6.017699985664656e+30,6138169.658936817,13567.047337893999,0.0
834,6.017971111186243e+30,6138217.242110252,14573.753287832898,0.0
835,6.024799656765374e+30,6141153.81089982,19573.82606172248,0.0
836,6.017766488686141e+30,6138178.583319174,14314.578592586578,0.0
837,6.02643822028354e+30,6142066.8784021605,14753.749370194033,0.0
838,6.018018891506997e+30,6138227.720103851,14711.867894603718,0.0
839,6.019987892697013e+30,6138867.471778419,19039.305840286746,0.0
840,6.020074996738919e+30,6138949.128194737,13963.679016692784,0.0
841,6.01769832898983e+30,6138169.489470481,13429.853553813846,0.0
842,6.024811568624872e+30,6141136.03549413,22058.255568729102,0.0
843,6.018535141616435e+30,6138364.885085592,15029.743027461187,0.0
844,6.017785296306848e+30,6138181.854941031,13473.225339044486,0.0
845,6.017732553082555e+30,6138173.642283854,14588.32109236591,0.0
846,6.017783035483257e+30,6138181.305542049,13485.517387982398,0.0
847,6.020166996168308e+30,6138992.448508445,16839.37719375299,0.0
848,6.01812500821378e+30,6138251.597494868,16023.827061837936,0.0
849,6.018560312435942e+30,6138367.646930146,16626.56438350094,0.0
850,6.017741459215998e+30,6138174.886957312,14504.147110117507,0.0
851,6.023465667162983e+30,6140679.083869428,18269.093160126355,0.0
852,6.020858761564053e+30,6139237.235579742,14557.752163468305,0.0
853,6.017695160739716e+30,6138169.180552829,13399.599079478292,0.0
854,6.017687868825509e+30,6138168.586596119,13325.969375469205,0.0
855,6.020606767948609e+30,6139114.3552296115,14962.047661466511,0.0
856,6.018151091135318e+30,6138259.543231692,13862.09513122471,0.0
857,6.017692705449375e+30,6138168.954581658,13608.590692603144,0.0
858,6.017726874106758e+30,6138172.902708299,14057.138251950382,0.0
859,6.020090652195927e+30,6138962.571882453,13438.281669984055,0.0
860,6.017688408982739e+30,6138168.618035525,13177.215235941672,0.0
861,6.018418681031124e+30,6138336.430528287,13345.325625311962,0.0
862,6.039327039204363e+30,6151257.004561806,33105.55246437041,0.0
863,6.017932074639879e+30,6138209.1625019815,14734.627788373746,0.0
864,6.022706466115634e+30,6140065.3101074,18176.256489417865,0.0
865,6.020447224732317e+30,6139103.904499987,18873.53730065247,0.0
866,6.017724289872822e+30,6138172.572906117,14447.841034709256,0.0
867,6.017811925465386e+30,6138186.008621798,14324.263401733944,0.0
868,6.029885756226925e+30,6144247.199562868,13166.175551956934,0.0
869,6.019530201529417e+30,6138701.887235983,14408.392270022947,0.0
870,6.017694296985173e+30,6138169.098035011,13744.528669056046,0.0
871,6.03695924177546e+30,6148976.420579301,13979.852776850203,0.0
872,6.027823070320042e+30,6143224.986806265,20015.713000018768,0.0
873,6.023204189630965e+30,6140333.132642551,14928.45274422733,0.0
874,6.017694046113587e+30,6138169.075330446,13489.088473829153,0.0
875,6.01796212331188e+30,6138216.858367148,13767.32743834735,0.0
876,6.019705995526485e+30,6138785.722806157,15581.510132200783,0.0
877,6.021417099464819e+30,6139589.884643163,20919.45545239535,0.0
878,6.020861050202657e+30,6139262.726951377,17436.275049292835,0.0
879,6.019450396443924e+30,6138660.850151529,13764.025286209138,0.0
880,6.020051156123834e+30,6138893.701761002,15973.015374258555,0.0
881,6.025276287092732e+30,6141436.02641174,21688.853195072366,0.0
882,6.022278157381835e+30,6139978.578213822,15143.188394113666,0.0
883,6.017691653837719e+30,6138168.865700167,13246.991388499859,0.0
884,6.020518787219452e+30,6139081.271502503,19530.91469328281,0.0
885,6.021348916856439e+30,6139441.553600166,15021.3126297658,0.0
886,6.017786761231827e+30,6138181.968396001,13272.408233149094,0.0
887,6.033146672466222e+30,6146408.779037725,19241.941425718782,0.0
888,6.019455019937625e+30,6138692.724602441,17843.533301956373,0.0
889,6.025635223303695e+30,6141624.171854008,14982.25170753032,0.0
890,6.017736441801697e+30,6138174.217600835,13312.981397095471,0.0
891,6.017688634290328e+30,6138168.632160511,13342.771785151712,0.0
892,6.017690703913562e+30,6138168.78660243,13197.974760437137,0.0
893,6.019011992469468e+30,6138508.28697756,16332.827537435523,0.0
894,6.017688118461563e+30,6138168.600241926,13214.920851958746,0.0
895,6.017687883050066e+30,6138168.587496269,13236.1322325115,0.0
896,6.019745227668094e+30,6138766.468544115,14947.170228410643,0.0
897,6.019137805930391e+30,6138547.100525723,16948.78118710224,0.0
898,6.019339720035193e+30,6138633.746727363,15102.931641060653,0.0
899,6.017687888140709e+30,6138168.587558817,13308.301028400248,0.0
900,6.017688265985711e+30,6138168.608304136,13499.34037472403,0.0
901,6.017687839620088e+30,6138168.585788147,13130.310462432117,0.0
902,6.017687927628762e+30,6138168.589748046,13221.14973086613,0.0
903,6.020599849926028e+30,6139102.126996494,13783.915163118512,0.0
904,6.017818115254011e+30,6138187.137398938,13741.000906829577,0.0
905,6.019259933344439e+30,6138601.974337466,17844.907213296035,0.0
906,6.017815962379348e+30,6138186.831126714,13189.001173121902,0.0
907,6.04343882240736e+30,6154324.038043579,44466.55383974948,0.0
908,6.022848988055805e+30,6140357.139299769,22078.135781251174,0.0
909,6.017805755215065e+30,6138184.999901721,14303.923018447658,0.0
910,6.017711794167399e+30,6138170.993922668,14180.134754793906,0.0
911,6.018799849950434e+30,6138438.243944853,15347.677177930884,0.0
912,6.022431201285233e+30,6140124.447399285,21742.4164567503,0.0
913,6.017704621591834e+30,6138170.159575241,13811.2296504008,0.0
914,6.019348608759433e+30,6138652.761116381,17815.272957430632,0.0
915,6.019093579352747e+30,6138532.743490789,14899.005931451946,0.0
916,6.019181909182267e+30,6138564.145129186,15615.592839794943,0.0
917,6.028079731909848e+30,6143523.919433821,16695.982462539658,0.0
918,6.018128993134731e+30,6138253.65339242,14488.816780370566,0.0
919,6.01775482015638e+30,6138176.965162267,13189.345773481185,0.0
920,6.032828635402474e+30,6146021.808737824,16288.654883626026,0.0
921,6.024133282743994e+30,6141009.158949566,15583.317733722317,0.0
922,6.019011453813706e+30,6138506.418103486,15587.341574323924,0.0
923,6.017756759405239e+30,6138177.255259425,14774.930019536256,0.0
924,6.017703907904954e+30,6138170.095448239,13569.419900902787,0.0
925,6.04631891873836e+30,6157080.06085117,25817.667258203088,0.0
926,6.017943963648498e+30,6138211.473171554,13701.623299973999,0.0
927,6.01777401994345e+30,6138179.75873985,13367.801105976014,0.0
928,6.020137778053493e+30,6138918.837197087,13526.698346342928,0.0
929,6.017938011681384e+30,6138210.691108843,15473.287215989487,0.0
930,6.017698549466304e+30,6138169.513446054,13816.040645573516,0.0
931,6.020332089163945e+30,6139008.488727676,18759.770856093986,0.0
932,6.017703905050765e+30,6138170.093601346,13508.252117070231,0.0
933,6.018029411956164e+30,6138229.68615315,14433.397630643842,0.0
934,6.017720130024343e+30,6138172.01393877,13171.702621130464,0.0
935,6.017995560144613e+30,6138222.681154088,14329.002146840474,0.0
936,6.022729403782412e+30,6140074.881482125,13723.300442306238,0.0
937,6.017688248174217e+30,6138168.607827688,13250.911248339959,0.0
938,6.017732409438034e+30,6138173.64805099,14463.337710044992,0.0
939,6.020665146617356e+30,6139171.563172878,13171.541524169028,0.0
940,6.018281366773915e+30,6138294.122147175,13275.340897687214,0.0
941,6.017687837284889e+30,6138168.5856139725,13161.630707944085,0.0
942,6.024823274928947e+30,6141137.8737326795,23294.1676773736,0.0
943,6.017697417804272e+30,6138169.401409512,13992.78400977133,0.0
944,6.017688396471506e+30,6138168.617164027,13229.212265721282,0.0
945,6.01768844563267e+30,6138168.619940357,13370.402662486184,0.0
946,6.018281166500545e+30,6138290.440683213,16508.014450918025,0.0
947,6.0424921088516e+30,6154191.185143001,24679.865811903728,0.0
948,6.019688837104368e+30,6138745.774940723,13986.577329761192,0.0
949,6.018688930639292e+30,6138406.169663225,13640.089759758437,0.0
950,6.020229664926724e+30,6139008.750850805,14432.428105359417,0.0
951,6.017997466633448e+30,6138224.4182518395,15653.605128702207,0.0
952,6.017688101280936e+30,6138168.598843674,13376.890476325729,0.0
953,6.017930434043985e+30,6138208.45406551,13156.771477670514,0.0
954,6.018146849237454e+30,6138257.190733322,15158.138080033932,0.0
955,6.034509708465953e+30,6148314.097304301,14657.707649883403,0.0
956,6.031268323179976e+30,6145243.460040247,31654.72265983357,0.0
957,6.035797148785695e+30,6149336.628746256,32858.62101982321,0.0
958,1.3867794585242894,0.00020720748211236871,1.311232337733786e+24,1.0
959,6.021839140480615e+30,6139789.873375085,17354.827800772833,0.0
960,6.025108201345635e+30,6141715.406029179,23932.42981454117,0.0
961,6.029266105360381e+30,6143824.366800883,21315.974989623923,0.0
962,6.017687963971542e+30,6138168.59147518,13284.674893915557,0.0
963,6.017985124984741e+30,6138221.78116044,13136.450772273603,0.0
964,6.02053056712705e+30,6139118.388578597,14089.957169338324,0.0
965,6.017714337167226e+30,6138171.302888823,14228.020422692418,0.0
966,6.028731808139102e+30,6143406.504704715,16052.557128533892,0.0
967,6.018680975905683e+30,6138402.387902748,16297.28548625451,0.0
968,6.017712341718768e+30,6138171.082688,13585.534891009993,0.0
969,6.018681329037793e+30,6138404.365995259,17577.189266809535,0.0
970,6.019286043490016e+30,6138611.476394514,17774.140935481937,0.0
971,6.01911694466645e+30,6138567.632775389,14499.01174442871,0.0
972,6.02682062219856e+30,6142841.114648353,24588.992618853095,0.0
973,6.017690259206213e+30,6138168.750619005,13391.387952448073,0.0
974,6.025650699370954e+30,6142012.700511374,13616.924513400827,0.0
975,6.019051905055106e+30,6138518.944108436,17731.98972911731,0.0
976,6.018584415440531e+30,6138374.776017138,14228.166444481147,0.0
977,6.01801007561913e+30,6138225.306278298,14312.108227307881,0.0
978,6.017688944086069e+30,6138168.653400731,13261.105787213563,0.0
979,6.017939782317802e+30,6138210.304427705,13236.788528093026,0.0
980,6.017943935719422e+30,6138211.199614721,15734.092047786524,0.0
981,6.018281264498199e+30,6138294.016182048,13247.300418435723,0.0
982,6.017818264935349e+30,6138187.352971766,14615.887887538169,0.0
983,6.020219558768915e+30,6138999.541846566,14823.347717912573,0.0
984,6.017737998764266e+30,6138174.485871059,14134.851345744728,0.0
985,6.02032172644339e+30,6139014.096750371,13440.959727174102,0.0
986,6.017787266189818e+30,6138181.928753929,14679.01160658204,0.0
987,6.02551444253123e+30,6141635.781395089,16368.607413298436,0.0
988,6.027627175751305e+30,6142871.961172141,27501.596848818444,0.0
989,6.017736043470911e+30,6138174.159927367,14101.554050680546,0.0
990,6.020125410308936e+30,6138910.268468562,17430.748699216914,0.0
991,6.021330123152142e+30,6139412.6409610845,18858.63846570989,0.0
992,6.020396969492358e+30,6139018.414437195,13820.577337940844,0.0
993,6.018668827851199e+30,6138402.929343348,14697.804560692108,0.0
994,6.017707369593603e+30,6138170.493990301,13149.433075586427,0.0
995,6.017720155074997e+30,6138172.009311959,14187.107690518133,0.0
996,6.017916943099179e+30,6138206.98517984,13639.440484419225,0.0
997,6.01901408026456e+30,6138506.356044736,14035.519231498294,0.0
998,6.017738001217496e+30,6138174.39399091,13871.113129739266,0.0
999,6.017688033645987e+30,6138168.595539818,13170.026520200243,0.0
