,0,1,2,3
0,6.018133031662193e+30,6138254.21044756,13594.447679877441,0.0
1,6.01780837581297e+30,6138185.921399223,14947.867516819555,0.0
2,6.032156290638124e+30,6145578.799814985,27155.05702394659,0.0
3,6.025830296528158e+30,6142170.38125307,25103.72349166642,0.0
4,6.018799869173928e+30,6138441.081421654,17263.50819613233,0.0
5,6.020518246234007e+30,6139080.665797258,19587.83290506358,0.0
6,6.019013142221944e+30,6138505.935647314,14336.868659730984,0.0
7,6.022234978358471e+30,6140016.191505581,16516.821330143473,0.0
8,6.022711096254884e+30,6140076.260932368,17356.960626319622,0.0
9,6.017971809681713e+30,6138216.952408004,15507.03480856041,0.0
10,6.01770599004752e+30,6138170.309456311,14115.80344488594,0.0
11,6.017689139771674e+30,6138168.66722176,13213.046699537996,0.0
12,6.019051841635929e+30,6138518.990494835,17805.005971879502,0.0
13,6.019614817148248e+30,6138719.872372269,15484.58368844997,0.0
14,6.027191537868693e+30,6142470.643353062,24793.222774268354,0.0
15,6.022523649514755e+30,6139976.125667227,18382.12413483091,0.0
16,6.024857462872358e+30,6141489.6302436525,14282.424556791062,0.0
17,6.01855472907037e+30,6138366.99926326,15791.28670691143,0.0
18,6.022023024102521e+30,6139891.610883623,22325.082360993278,0.0
19,6.020001467523115e+30,6138910.339731745,15468.199804790009,0.0
20,6.017753941799308e+30,6138176.8459149785,14014.600535500174,0.0
21,6.017880452420751e+30,6138199.129851941,15015.525241286055,0.0
22,6.018758109692589e+30,6138432.196147183,16232.063419012666,0.0
23,6.017731415013967e+30,6138173.491088804,13222.531026760727,0.0
24,6.020984098059423e+30,6139320.430217906,13799.751637452571,0.0
25,6.01922902225625e+30,6138578.019295686,17085.402358252333,0.0
26,6.01909335151176e+30,6138533.570217855,15470.682786356607,0.0
27,6.021597723985779e+30,6139628.581918849,15261.137301336967,0.0
28,6.036952943550015e+30,6148978.486519894,13893.924068444932,0.0
29,6.021349012940535e+30,6139441.715038104,15029.336964861457,0.0
30,6.018531779321215e+30,6138358.520078938,16647.216805837088,0.0
31,6.01819662157102e+30,6138271.113210675,13315.914641262421,0.0
32,6.036403283361922e+30,6148323.396987836,37501.55723718423,0.0
33,6.017687951238295e+30,6138168.5908555025,13265.136455761965,0.0
34,6.019813831035198e+30,6138789.4530211035,17325.95483223924,0.0
35,6.017715592830212e+30,6138171.443098834,13186.421207984475,0.0
36,6.02099208739326e+30,6139334.563990475,14183.650381343628,0.0
37,6.021773616069038e+30,6139726.698270979,19156.77163187233,0.0
38,6.017726258186905e+30,6138172.802613086,13938.423667638153,0.0
39,6.026742110889041e+30,6142206.646244538,16979.177985000337,0.0
40,6.018769280921663e+30,6138428.759194891,17693.359960284324,0.0
41,6.018377347554093e+30,6138320.713423104,16408.126842267353,0.0
42,6.017687856040168e+30,6138168.586361389,13185.729313287153,0.0
43,6.017885005828152e+30,6138199.53440209,15142.101299184344,0.0
44,6.022124499761532e+30,6139780.774866286,13933.89429344897,0.0
45,6.017714681319442e+30,6138171.372057453,14067.206173981504,0.0
46,6.020944963137229e+30,6139249.454299445,13740.472087636866,0.0
47,6.022436291134776e+30,6140043.573644818,21191.296451088478,0.0
48,6.032478605735588e+30,6146530.405898119,34910.11281078877,0.0
49,6.017735687662204e+30,6138174.089076083,14524.772185456739,0.0
50,6.028526684461294e+30,6143946.876825222,13581.813377857172,0.0
51,6.021132274409e+30,6139444.232781387,21034.153104370504,0.0
52,6.020137169194451e+30,6138918.2114782715,13591.000231234935,0.0
53,6.033159509300678e+30,6146426.284069006,19364.312845393426,0.0
54,6.017798636359407e+30,6138184.076767843,13964.762105299771,0.0
55,6.01771380227803e+30,6138171.224940587,13194.866722709308,0.0
56,6.017770191535224e+30,6138179.155044422,14612.753791172097,0.0
57,6.017702828656302e+30,6138169.9611551305,13517.354676005838,0.0
58,6.020212524254891e+30,6138941.706931909,19095.982429182666,0.0
59,6.01913674478895e+30,6138548.431966468,18469.927730515246,0.0
60,6.020975897306185e+30,6139306.011043935,13377.851580784682,0.0
61,6.018903241176061e+30,6138477.469437285,15327.3489993498,0.0
62,6.02230839764207e+30,6139868.968467461,18334.177714181827,0.0
63,6.018544862539562e+30,6138365.972448611,13140.491914846094,0.0
64,6.017721317783456e+30,6138172.1870728955,14269.320494061882,0.0
65,6.038191032512567e+30,6150226.711857099,22779.91687960185,0.0
66,6.017690512842751e+30,6138168.770865374,13640.453280621152,0.0
67,6.019616964194654e+30,6138715.631574972,18501.078405763044,0.0
68,6.017687925438563e+30,6138168.5895347195,13260.394216545703,0.0
69,6.018311326049086e+30,6138302.233364049,16805.76694377175,0.0
70,6.017687833399907e+30,6138168.535075861,43209.998207146535,1.0
71,6.021076223303177e+30,6139312.832063838,16529.694819560245,0.0
72,6.01801717374874e+30,6138228.663109492,13632.712857239938,0.0
73,6.018356071460124e+30,6138310.595218833,16431.54560213826,0.0
74,6.018373128742709e+30,6138315.068494927,14191.230888609494,0.0
75,6.017687864094207e+30,6138168.58684298,13140.418990104115,0.0
76,6.017803874434158e+30,6138184.657832086,13130.136869495263,0.0
77,6.017876545430895e+30,6138198.101795908,13376.10393366579,0.0
78,6.019632974107488e+30,6138762.048360636,14693.326845016252,0.0
79,6.017689196745267e+30,6138168.670253084,13626.290773996832,0.0
80,6.026930305387e+30,6142376.963444181,23031.364429315327,0.0
81,6.024086935819394e+30,6141071.295554882,17340.77824809787,0.0
82,6.049995787612041e+30,6161253.729965265,13895.40216604808,0.0
83,6.018865134226576e+30,6138458.802153057,15450.59938504955,0.0
84,6.017856954963596e+30,6138194.290809017,13811.021149627262,0.0
85,6.01822587009748e+30,6138278.801826192,13484.89756629655,0.0
86,6.017851464344857e+30,6138193.73534266,13429.686276489196,0.0
87,6.01768785043178e+30,6138168.586065728,13204.041848235956,0.0
88,6.017757760809015e+30,6138177.2640807,13498.421829879426,0.0
89,6.026333507300302e+30,6141970.57579559,26040.495602981027,0.0
90,6.017912032959985e+30,6138205.5707883695,14265.04615688837,0.0
91,6.050175291326061e+30,6160980.367530634,30783.66038705704,0.0
92,6.017860300934814e+30,6138194.685311339,13354.603862073589,0.0
93,6.017957245665834e+30,6138214.332955821,15805.638286596337,0.0
94,6.017965254536036e+30,6138216.769818833,13192.274841621946,0.0
95,6.018512823002426e+30,6138358.251222811,13151.697489934726,0.0
96,6.02163456585074e+30,6139557.173726984,13877.969531020235,0.0
97,6.017694818581803e+30,6138169.149084143,13515.978423316774,0.0
98,6.017687851246608e+30,6138168.586044819,13226.677132965393,0.0
99,6.020597179260798e+30,6139162.328803536,14949.477860828141,0.0
100,6.018037397032042e+30,6138233.169874742,13125.832634132881,0.0
101,6.017687897953388e+30,6138168.587999666,13323.888315753036,0.0
102,6.020128850457163e+30,6138958.475551012,18594.15627923455,0.0
103,6.017688971128888e+30,6138168.6551816845,13302.374693027472,0.0
104,6.018162154701775e+30,6138262.37848238,15361.2997681636,0.0
105,6.01769091079354e+30,6138168.803525399,13160.003873043683,0.0
106,6.017700403357481e+30,6138169.709321936,14033.228507236108,0.0
107,6.017694139539085e+30,6138169.087829214,13452.341602533003,0.0
108,6.017924776956195e+30,6138207.213702555,15613.564503200263,0.0
109,6.017687848071481e+30,6138168.585790572,13272.494396876657,0.0
110,6.020654334294396e+30,6139195.750959295,18771.26936141562,0.0
111,6.018303103867079e+30,6138298.456413574,16322.038344060325,0.0
112,6.018281615405651e+30,6138290.664433377,16326.921724247657,0.0
113,6.01770399160087e+30,6138170.094395724,13752.72107131012,0.0
114,6.02280333291573e+30,6140197.619258876,17279.806190482625,0.0
115,6.017770025642327e+30,6138179.15910306,13606.680899888903,0.0
116,6.018029247543605e+30,6138231.036254567,14922.300423226468,0.0
117,6.017746563881713e+30,6138175.664941526,13703.079612615898,0.0
118,6.0179495431707e+30,6138212.2781727,13434.116230982725,0.0
119,6.019491723209042e+30,6138670.3044332145,14251.70610133499,0.0
120,6.062615338306088e+30,6177837.455160432,20889.742632811045,0.0
121,6.019857702934763e+30,6138827.909479409,17260.373908091755,0.0
122,6.024888431042334e+30,6141195.168004052,14129.05688638625,0.0
123,6.020567097116878e+30,6139132.717690508,16212.315931993735,0.0
124,6.019093620278761e+30,6138534.618830078,15880.93236680032,0.0
125,6.019056360226608e+30,6138528.522663579,14935.91466551827,0.0
126,6.037195174033691e+30,6149993.851742789,24548.083351631576,0.0
127,6.018285705662637e+30,6138292.9659111835,15070.064720717646,0.0
128,6.038158480316871e+30,6150179.358895485,22555.979311844058,0.0
129,6.017689759449374e+30,6138168.712029753,13459.01545210927,0.0
130,6.017697168865092e+30,6138169.377626854,13703.712310088915,0.0
131,6.029890108520115e+30,6144226.841294705,13596.045722772404,0.0
132,6.023580325089959e+30,6140684.484291625,15631.013541946293,0.0
133,6.019055679815857e+30,6138520.308107966,16095.441928808072,0.0
134,6.017687976988068e+30,6138168.592564348,13128.40530293231,0.0
135,6.044580872895426e+30,6156044.143335915,15186.50938229321,0.0
136,6.018805882895472e+30,6138449.687639428,14060.910849168024,0.0
137,6.020144071545904e+30,6138972.293731418,17828.54812961745,0.0
138,6.017718486650032e+30,6138171.818224208,14076.689577286264,0.0
139,6.017880281894924e+30,6138198.4554225765,15126.24964769516,0.0
140,6.018308804371483e+30,6138297.338106857,13529.064611159598,0.0
141,6.017687840253426e+30,6138168.585638515,13200.237432466765,0.0
142,6.019153091712016e+30,6138557.93781445,13940.620339918829,0.0
143,6.033271791294203e+30,6146226.760889751,20523.545525571717,0.0
144,6.018531587474537e+30,6138358.580705292,16859.731905005392,0.0
145,6.019380166985205e+30,6138631.830461998,14924.500309088653,0.0
146,6.017954363355e+30,6138213.370249348,15533.679922238076,0.0
147,6.024191239648503e+30,6140848.169174869,17697.907582038886,0.0
148,6.023577315879779e+30,6140692.1465183925,14341.630895716891,0.0
149,6.019496810400882e+30,6138681.28801059,16465.59361797937,0.0
150,6.018367691656836e+30,6138316.036768383,15858.854227563974,0.0
151,6.017697012377149e+30,6138169.3588648215,13147.286369344425,0.0
152,6.017726602665566e+30,6138172.863072874,14521.838176295658,0.0
153,6.021198684393257e+30,6139359.820499618,13714.718217196236,0.0
154,6.022531660906105e+30,6139987.699242397,19051.12832537082,0.0
155,6.02162711312558e+30,6139546.368972493,21814.41346942859,0.0
156,6.020511464140687e+30,6139085.984622627,20062.43155440042,0.0
157,6.030210158321131e+30,6144804.942914535,22641.45489098796,0.0
158,6.017748928251112e+30,6138175.984326946,14594.771141717181,0.0
159,6.019833206735595e+30,6138822.827790144,14455.251732129753,0.0
160,6.032624804326342e+30,6146416.123490633,14377.138572039083,0.0
161,6.028422603680625e+30,6143223.079394197,14881.719748376196,0.0
162,6.02248161847192e+30,6140092.159684767,19746.724471762485,0.0
163,6.019317330664546e+30,6138626.484741141,14239.441270614188,0.0
164,6.023942197836684e+30,6140763.342358565,21141.019466458976,0.0
165,6.020528245986089e+30,6139114.461813083,13952.705337717074,0.0
166,6.021642490399871e+30,6139569.665311671,14587.884067266732,0.0
167,6.018002203840645e+30,6138225.084815157,15158.206220540138,0.0
168,6.01786189427266e+30,6138195.266850699,14101.029707020709,0.0
169,6.017693371612371e+30,6138169.014524053,13279.705290602375,0.0
170,6.01790719740004e+30,6138204.191237565,15077.29942731373,0.0
171,6.017722983040325e+30,6138172.371711973,14537.68845831139,0.0
172,6.017778578325901e+30,6138180.551929505,14952.993983510685,0.0
173,6.017757878176174e+30,6138177.4574652575,13615.10971799379,0.0
174,6.018839772248102e+30,6138466.872499013,14079.184571638718,0.0
175,6.019445819897234e+30,6138656.911518394,14315.985251578073,0.0
176,6.018467295921942e+30,6138341.407646237,15917.958552299442,0.0
177,6.020142033712034e+30,6138970.464612231,17925.342140715817,0.0
178,6.018892346604366e+30,6138477.552187479,15322.71838789932,0.0
179,6.022504791304131e+30,6139954.029042588,16243.883655907437,0.0
180,6.020503252057807e+30,6139071.9054159615,18896.952704730884,0.0
181,6.025138860172975e+30,6141374.954466221,25516.466810967853,0.0
182,6.019329152225179e+30,6138612.346176222,16409.970136974705,0.0
183,299227980.31815445,0.12428070279053659,1.311232337733786e+24,1.0
184,6.017767651757407e+30,6138178.866659692,14493.015518002218,0.0
185,6.018008419183845e+30,6138224.966167202,13174.077032075968,0.0
186,6.017695698461099e+30,6138169.231344664,13511.874379247323,0.0
187,6.0176878366121e+30,6138168.585702694,13115.611944652283,0.0
188,6.020265186479691e+30,6139033.249811271,19454.138527142728,0.0
189,6.023647707617343e+30,6140566.0017620325,17029.586918418976,0.0
190,6.018037377714798e+30,6138233.159028747,13131.11340331475,0.0
191,6.028297983939249e+30,6143112.656353281,29686.2386069032,0.0
192,6.018029892061513e+30,6138229.542633888,13478.352221885947,0.0
193,6.017738973099223e+30,6138174.552495226,13290.297274265085,0.0
194,6.017740053227019e+30,6138174.679768259,14417.538298642,0.0
195,6.017775537611638e+30,6138180.304261387,14822.612446248244,0.0
196,6.017707168658055e+30,6138170.466583876,13563.647030814542,0.0
197,6.019055324830385e+30,6138520.093857785,16191.766875218127,0.0
198,6.017997745607156e+30,6138224.64084291,15782.048668835745,0.0
199,6.022473838909219e+30,6140155.039260306,20567.84674507237,0.0
200,6.020443893436659e+30,6139065.890461257,14000.403294007778,0.0
201,6.017716239392883e+30,6138171.519709716,14369.181487831409,0.0
202,6.024437029321913e+30,6141176.243279412,19774.83823860765,0.0
203,6.017874186230204e+30,6138197.416561226,14347.31767631957,0.0
204,6.02040226485965e+30,6139028.179579503,14931.731956676145,0.0
205,6.017704555669276e+30,6138170.153912093,13849.31854750492,0.0
206,6.037182737869728e+30,6149794.661976711,14658.973107159985,0.0
207,6.020819165321634e+30,6139189.990351813,20076.981645262393,0.0
208,6.01770915407706e+30,6138170.672257864,14255.70422481758,0.0
209,6.017750282089089e+30,6138176.145191656,13909.937724305744,0.0
210,6.017687859525921e+30,6138168.586500399,13193.288119822637,0.0
211,6.01771100358548e+30,6138170.917370179,13403.779327880444,0.0
212,6.048425736566454e+30,6157557.059487394,13834.872938674285,0.0
213,6.022125166907017e+30,6139782.279549004,13799.780947101992,0.0
214,6.017843058272363e+30,6138192.041254394,14046.916556798551,0.0
215,6.019771597867467e+30,6138808.94771929,18629.132785004786,0.0
216,6.021572117471274e+30,6139648.621286794,15009.336025129163,0.0
217,6.017764772399425e+30,6138178.3851905195,14874.901741811631,0.0
218,6.017906923408598e+30,6138203.772555438,14158.736675002108,0.0
219,6.019745181596598e+30,6138766.37180854,14930.49132799291,0.0
220,6.01961660710111e+30,6138723.110907164,15937.88767248718,0.0
221,6.018053821886465e+30,6138236.7800356345,14233.788800080665,0.0
222,6.020949661979582e+30,6139255.500730801,13215.714172597829,0.0
223,6.017870462949661e+30,6138197.4839561125,15015.27233224877,0.0
224,6.018103967282873e+30,6138246.485253841,14176.093083778112,0.0
225,6.078025813715917e+30,6190797.751659376,57847.961636044434,0.0
226,6.021732101149905e+30,6139732.8521914035,19496.635040840825,0.0
227,6.018881635689196e+30,6138484.490226394,15672.199168233987,0.0
228,6.017687858682729e+30,6138168.586600826,13137.965349152435,0.0
229,6.021419620839636e+30,6139568.820267415,19192.245647577023,0.0
230,6.017705073141061e+30,6138170.210439149,14227.309090640834,0.0
231,6.017782289779783e+30,6138181.352117918,13670.913392961242,0.0
232,6.02521832366774e+30,6141364.698439598,19366.445794957537,0.0
233,6.018180021141787e+30,6138268.898752189,14819.162517167224,0.0
234,6.026486644622737e+30,6142559.282969157,13568.689045926914,0.0
235,6.047865490586746e+30,6156982.404240562,56996.81524614565,0.0
236,6.018515470174372e+30,6138354.872304997,16716.72932659119,0.0
237,6.017689729661669e+30,6138168.710021916,13456.784283343546,0.0
238,6.017875757022206e+30,6138198.0985985,13253.933050439799,0.0
239,6.02277034428281e+30,6140169.399334475,13875.658225575888,0.0
240,6.017688023004641e+30,6138168.595007044,13156.681590938977,0.0
241,6.01773000574197e+30,6138173.335398664,13389.080131124667,0.0
242,6.017688019325754e+30,6138168.594197487,13392.073792777588,0.0
243,6.024484037622962e+30,6140986.489003194,13631.527421277448,0.0
244,6.018714323528126e+30,6138412.898307253,16406.527723996227,0.0
245,6.018326278872652e+30,6138302.165229542,14357.735900179783,0.0
246,6.01798989682571e+30,6138220.821310412,13688.001915067158,0.0
247,6.02162688700221e+30,6139546.069404676,21754.151490889482,0.0
248,6.028143668671715e+30,6143589.853773764,16118.615947923954,0.0
249,6.026902921276921e+30,6142650.063415749,18813.056957932753,0.0
250,6.021589868740749e+30,6139620.389366873,15497.187858035231,0.0
251,6.017709099331651e+30,6138170.687549449,13422.734313667483,0.0
252,6.018359068737195e+30,6138310.902073535,14111.54844845708,0.0
253,6.022266210971093e+30,6140023.846093184,15244.734377964198,0.0
254,6.02033362127679e+30,6139060.350798717,17309.56035417273,0.0
255,6.025484729121386e+30,6141810.471225599,14514.333626345668,0.0
256,6.018008918104348e+30,6138225.826819317,14330.937468811653,0.0
257,6.017868446317949e+30,6138196.542548195,13810.425250903387,0.0
258,6.018279655357184e+30,6138292.244609972,16331.365899906705,0.0
259,6.019327535437948e+30,6138612.866615076,17728.47013556894,0.0
260,6.018633896191622e+30,6138389.17136662,14134.932094705528,0.0
261,6.019854667603778e+30,6138825.014487789,17494.872016087036,0.0
262,6.01768815485764e+30,6138168.601680493,13484.838188767719,0.0
263,6.020610375065726e+30,6139120.563499391,15395.10621785592,0.0
264,6.01913698716537e+30,6138549.214666691,13294.151616622788,0.0
265,6.01769269747959e+30,6138168.95460496,13166.285396845766,0.0
266,6.018468232890108e+30,6138340.458126919,14343.313620999172,0.0
267,6.028045513483195e+30,6143627.710213287,19631.977788835404,0.0
268,6.017731354692194e+30,6138173.558772696,13751.649883505454,0.0
269,6.018176586813722e+30,6138265.49790418,13558.583978499952,0.0
270,6.017780722541313e+30,6138180.830831934,14425.805331608684,0.0
271,6.017708230972744e+30,6138170.564886718,13616.265652824535,0.0
272,6.023846241014173e+30,6140838.085106659,21488.757956359445,0.0
273,6.017688095228742e+30,6138168.599064436,13157.956355989205,0.0
274,6.041018436818441e+30,6151592.868409054,24395.53514750785,0.0
275,6.017712782700816e+30,6138171.115269234,13973.786745124957,0.0
276,6.020715971886074e+30,6139153.700143161,13532.331319699893,0.0
277,6.03425953931628e+30,6147245.49751608,34278.58528729507,0.0
278,6.02451991693416e+30,6141080.2566055525,21833.039740562108,0.0
279,6.030751647082355e+30,6144945.800225501,31908.804582119592,0.0
280,6.017839852477545e+30,6138191.003913557,13898.38857160852,0.0
281,6.026736119660807e+30,6142399.971469304,23389.296788679134,0.0
282,6.017687855027691e+30,6138168.586106825,13268.960051625489,0.0
283,6.035156413658828e+30,6147737.897632526,19003.0385328016,0.0
284,6.020830477294448e+30,6139209.94407861,14919.055872871362,0.0
285,6.024487735165795e+30,6141006.148825326,25196.7213262117,0.0
286,6.017687880793936e+30,6138168.587660059,13127.600725515591,0.0
287,6.021684180445756e+30,6139642.32732736,17220.664979111592,0.0
288,6.021166058488721e+30,6139415.364667391,19814.324272642545,0.0
289,6.032039793113819e+30,6145659.192836045,22018.532997194598,0.0
290,6.01769058754703e+30,6138168.776765984,13335.292012129354,0.0
291,6.017870390927185e+30,6138197.336140467,14388.88161021729,0.0
292,6.01770805900504e+30,6138170.547856473,13854.641005486936,0.0
293,6.017692042137186e+30,6138168.896460809,13774.714286179124,0.0
294,6.01768799796045e+30,6138168.593360834,13265.00905510287,0.0
295,6.017733435745968e+30,6138173.811553824,14301.071134758487,0.0
296,6.056270222872018e+30,6164751.294620856,13490.582171400252,0.0
297,6.017687885493457e+30,6138168.587589432,13244.814771413734,0.0
298,6.01775112627033e+30,6138176.406216756,13532.764239872145,0.0
299,6.017687839454766e+30,6138168.585500994,13241.879563157392,0.0
300,6.019495834702986e+30,6138671.7368488135,18633.460055519554,0.0
301,6.048736540898854e+30,6159619.09415216,14466.829773292258,0.0
302,6.020637162256084e+30,6139141.594388906,14535.280166325158,0.0
303,6.020203214430105e+30,6138984.300435897,15534.40696943975,0.0
304,6.026279063265212e+30,6142068.30881563,17234.620120638894,0.0
305,6.019292724816899e+30,6138620.976002836,18739.488062808457,0.0
306,6.017768799055132e+30,6138178.9781534225,14797.946050073018,0.0
307,6.020306777741644e+30,6139035.941412427,18499.764764902546,0.0
308,6.017809919428331e+30,6138186.072125673,14151.259098209746,0.0
309,6.026688611498096e+30,6142244.236810304,13494.793322307823,0.0
310,6.022003926037866e+30,6139778.353746243,14013.857308674542,0.0
311,6.031669525432323e+30,6146236.104557474,30790.836865927544,0.0
312,6.017977142782739e+30,6138218.076181881,14507.051165705208,0.0
313,6.020017984070094e+30,6138897.0405099,16615.64132634022,0.0
314,6.017716680977609e+30,6138171.581750366,14105.367283130578,0.0
315,6.0232235485291e+30,6140364.108827029,15757.988297117836,0.0
316,6.020143205982923e+30,6138971.5175928455,17869.462234306102,0.0
317,6.017769081170206e+30,6138178.994165374,13457.588615997856,0.0
318,6.017855001381005e+30,6138193.804454494,14963.46104180036,0.0
319,6.017691634850101e+30,6138168.862464623,13667.32665974257,0.0
320,6.018751414435324e+30,6138427.242515683,17264.747054967702,0.0
321,6.037228280565064e+30,6150038.831931643,24152.48287492052,0.0
322,6.017991076170312e+30,6138221.280213732,15826.069368408613,0.0
323,6.017689050721879e+30,6138168.660696155,13388.81929619304,0.0
324,6.019964176270568e+30,6138887.711412072,18800.410052543004,0.0
325,6.017796678690865e+30,6138183.432902523,13169.946764939044,0.0
326,6.025765954097762e+30,6142115.403074682,25950.138456460747,0.0
327,6.01850993647273e+30,6138354.376915801,16184.817504412333,0.0
328,6.02466461440225e+30,6141283.910898641,17087.424400612304,0.0
329,6.017813595945823e+30,6138186.605666205,14337.2910981302,0.0
330,6.019929367225537e+30,6138886.614079199,19476.73440061525,0.0
331,6.01770281835481e+30,6138169.969235932,13167.237467747123,0.0
332,6.01818277482372e+30,6138266.9043701645,15661.034499171488,0.0
333,6.017882496628317e+30,6138199.3240181925,13238.976283540644,0.0
334,6.017687941086425e+30,6138168.590125114,13348.728725087856,0.0
335,6.01801160277619e+30,6138226.000118301,13543.605266520583,0.0
336,6.060824801363204e+30,6168630.333819543,34358.94338114999,0.0
337,6.017906999742399e+30,6138204.531260984,14437.238779867219,0.0
338,6.01884041694794e+30,6138462.7501996,16674.073593593068,0.0
339,6.01857715399594e+30,6138379.234214243,13792.353967466384,0.0
340,6.019513017416576e+30,6138715.553549337,14730.203959545965,0.0
341,6.017717644146527e+30,6138171.69639086,13579.163777414846,0.0
342,6.017699000403809e+30,6138169.564672852,13616.669570765624,0.0
343,6.01798307365289e+30,6138219.353741716,13125.07199688954,0.0
344,6.018851246164154e+30,6138461.018746092,13853.9349771755,0.0
345,6.017693758682933e+30,6138169.052154238,13624.06903196759,0.0
346,6.017688696788468e+30,6138168.636322872,13365.42931125376,0.0
347,6.046479655224915e+30,6156127.6479645595,33836.870324694784,0.0
348,6.017802231988245e+30,6138184.661705157,13659.31554381073,0.0
349,6.019588283024802e+30,6138722.576135479,17563.684207703453,0.0
350,6.028365937034259e+30,6143167.178135255,13981.384547750946,0.0
351,6.017996964720472e+30,6138222.4620037535,14483.675679076186,0.0
352,6.01768860857573e+30,6138168.630822854,13207.691840221662,0.0
353,6.019364510822193e+30,6138641.426218482,17398.742412036645,0.0
354,6.02173860605491e+30,6139690.332599575,20415.48592550344,0.0
355,6.018615072239652e+30,6138386.0578482775,15142.779350194853,0.0
356,6.018449719162192e+30,6138335.465550163,15827.555676019612,0.0
357,6.039309571849393e+30,6151116.887068506,36085.82650509136,0.0
358,6.017712605047206e+30,6138171.091271747,13248.641519417908,0.0
359,6.017696065725434e+30,6138169.266129969,13664.390012221123,0.0
360,6.021861490836898e+30,6139727.001403104,17120.508554492546,0.0
361,6.018513752831248e+30,6138353.85974128,17216.81281271247,0.0
362,6.018279082671859e+30,6138291.539985267,16006.207197782143,0.0
363,6.023161137835061e+30,6140318.429537193,16504.540257068045,0.0
364,6.01800274154424e+30,6138223.602647175,13449.891076060521,0.0
365,6.017687912825097e+30,6138168.588873839,13269.50168986099,0.0
366,6.017768799435532e+30,6138178.982355392,14844.305076935865,0.0
367,6.01902260324561e+30,6138512.143885094,17475.318608909343,0.0
368,6.020945723613403e+30,6139254.043677814,18222.18683530003,0.0
369,6.019873774324544e+30,6138843.016101845,16183.242228690106,0.0
370,6.017687831338025e+30,6137774.074323426,20664584381053.266,1.0
371,6.017687938605778e+30,6138168.590420643,13178.874891525416,0.0
372,6.017960115744111e+30,6138214.48073763,13376.33753308901,0.0
373,6.02338971902263e+30,6140390.653008731,15683.953597571031,0.0
374,6.023566178964622e+30,6140669.0593304215,14074.14693526714,0.0
375,6.01781397998321e+30,6138186.6093618125,14862.989791902453,0.0
376,6.017741277532842e+30,6138174.915916031,13335.697834107372,0.0
377,6.020404889200441e+30,6139032.750345257,15305.791663301277,0.0
378,6.018454130734638e+30,6138344.311485709,16403.238340568336,0.0
379,6.040923049579916e+30,6153344.010994366,16808.32625867476,0.0
380,6.018123043651942e+30,6138251.006632307,14045.569950041448,0.0
381,6.01919848913702e+30,6138573.516235837,16512.025927597282,0.0
382,6.017887917124248e+30,6138200.699133529,14947.644213696092,0.0
383,6.017687863908281e+30,6138168.586450057,13293.095698012441,0.0
384,6.020958529072516e+30,6139266.626699412,20206.172708807833,0.0
385,6.017834897466225e+30,6138190.042736294,13272.671884503448,0.0
386,6.018769524654956e+30,6138432.79723504,15259.331389841478,0.0
387,6.017729307752229e+30,6138173.21444766,13289.840919615473,0.0
388,6.018246316999719e+30,6138283.557068754,16697.625209459246,0.0
389,6.01847154798969e+30,6138347.164056567,13642.914798324156,0.0
390,6.020465985835313e+30,6139088.512903836,20284.929973146853,0.0
391,6.01768792969381e+30,6138168.589622048,13312.321280029033,0.0
392,6.03611590201128e+30,6148295.959480557,30583.272798097627,0.0
393,6.018078719989417e+30,6138240.728150813,14935.411552277761,0.0
394,6.01974386882877e+30,6138762.734499702,14070.312324910235,0.0
395,6.017694769546824e+30,6138169.144646125,13868.39915607788,0.0
396,6.017687832993807e+30,6138167.583022161,8194795.333824172,1.0
397,6.01919469231901e+30,6138584.160883781,13196.974930430828,0.0
398,6.020221921596182e+30,6138950.838754825,17032.995054466817,0.0
399,6.018903954074051e+30,6138471.370660019,16262.458880710356,0.0
400,6.025870218074373e+30,6141738.895184613,14596.875805253045,0.0
401,6.017770462427425e+30,6138179.229097332,13947.560938768067,0.0
402,6.017773315967961e+30,6138179.738532329,13234.568392305942,0.0
403,6.021354632220281e+30,6139451.246235512,15474.82505836581,0.0
404,6.017695314196964e+30,6138169.197097692,13190.668014934967,0.0
405,6.027787428567881e+30,6142814.823893028,19979.455554401626,0.0
406,6.01805658512877e+30,6138236.326414353,15635.152317788585,0.0
407,6.021242278183203e+30,6139435.192466109,13523.579384400464,0.0
408,6.017687836760914e+30,6138168.58566638,13132.38224215167,0.0
409,6.018610986300898e+30,6138383.271660507,15903.395220019906,0.0
410,6.01772427689026e+30,6138172.5497273095,13942.353297384312,0.0
411,6.0472364375588e+30,6157025.992624336,38895.477140359915,0.0
412,6.018294845419645e+30,6138293.7942828555,14859.83415219989,0.0
413,6.023926989497841e+30,6140665.571144205,17110.3785814218,0.0
414,6.017690483786124e+30,6138168.7680102885,13517.2966560971,0.0
415,6.019116780091379e+30,6138549.103193754,15738.421362392266,0.0
416,6.01768796431815e+30,6138168.591659902,13218.272904078802,0.0
417,6.017904333086051e+30,6138203.300518442,13454.711886760186,0.0
418,6.017711814694037e+30,6138171.0141849555,13333.523408774076,0.0
419,6.017700920609837e+30,6138169.764322374,14148.942154952167,0.0
420,6.020717877846802e+30,6139163.958907385,19105.722738651202,0.0
421,6.01769414259122e+30,6138169.085316863,13844.328246727191,0.0
422,6.017687876348028e+30,6138168.58724707,13207.003796722618,0.0
423,6.024218073687513e+30,6140818.343399046,24324.65472654697,0.0
424,6.017833007712289e+30,6138190.389208801,14914.472749898612,0.0
425,6.01907167326479e+30,6138551.418712063,17986.085001319203,0.0
426,6.023884129218258e+30,6140922.034996158,20691.739725870695,0.0
427,6.032565960695122e+30,6146632.23337866,33497.10178137847,0.0
428,6.017720540620241e+30,6138172.060233934,13439.728439170973,0.0
429,6.017699558668938e+30,6138169.61587386,13499.500908475107,0.0
430,6.04229003090067e+30,6153775.577687244,29150.86075350731,0.0
431,6.022320791266172e+30,6139873.036998953,13369.166305219951,0.0
432,6.017745308209883e+30,6138175.422033891,14334.087421508812,0.0
433,6.017829672647433e+30,6138189.209916044,14526.3919031264,0.0
434,6.018739550579246e+30,6138423.685675814,13241.852521367418,0.0
435,6.018307978563352e+30,6138297.997639371,14946.132624152338,0.0
436,6.045792295597435e+30,6155248.09458696,36156.61446216755,0.0
437,6.017859959071167e+30,6138194.700159293,14291.000526760728,0.0
438,6.021211358452901e+30,6139377.044820125,20572.58452104323,0.0
439,6.026834899980346e+30,6142852.464615952,24450.26721628058,0.0
440,6.017852250842848e+30,6138193.339084254,13692.227640994603,0.0
441,6.017688654997392e+30,6138168.634140551,13141.623577129274,0.0
442,6.018770963005934e+30,6138434.934659944,15731.465574316891,0.0
443,6.017689754225282e+30,6138168.712683927,13218.647176923374,0.0
444,6.017687837677077e+30,6138168.585494019,13215.664093111991,0.0
445,6.035989485076131e+30,6148157.345586103,29492.28526535276,0.0
446,6.019560208899632e+30,6138697.189903959,14448.631187072726,0.0
447,6.02139145846369e+30,6139516.671380262,17775.57154605875,0.0
448,6.017688482787142e+30,6138168.622367679,13305.08155641618,0.0
449,6.019519802910925e+30,6138692.504860124,15239.046156079943,0.0
450,6.01769115061122e+30,6138168.822487663,13280.857607959826,0.0
451,6.023332853439737e+30,6140573.279972437,19727.936819442868,0.0
452,6.0198875542694e+30,6138819.236357042,14564.73690025591,0.0
453,6.027484933549108e+30,6142755.952922866,17022.429227173372,0.0
454,6.027300630584882e+30,6143162.472823201,17115.542551392726,0.0
455,6.04745800749694e+30,6156705.49744664,66019.93718278146,0.0
456,6.017687872065324e+30,6138168.587039443,13209.792787387916,0.0
457,6.018509258847961e+30,6138352.752141073,15294.133370511532,0.0
458,6.018684545972841e+30,6138409.174483885,14094.857868261715,0.0
459,6.020322356061998e+30,6139015.148963804,13488.75582104227,0.0
460,6.017840280326482e+30,6138191.6169201825,13854.736381327655,0.0
461,6.02411110643742e+30,6140984.89470322,15966.410942630257,0.0
462,6.01769291610305e+30,6138168.97548793,13802.252249288038,0.0
463,6.023002474476672e+30,6140267.714585288,21893.695365452615,0.0
464,6.019623544183887e+30,6138721.129976624,17195.54451077377,0.0
465,6.024736756962222e+30,6141314.245077857,13812.382437093558,0.0
466,6.017688822021683e+30,6138168.645358242,13130.8919979001,0.0
467,6.017848090527808e+30,6138192.550015366,14974.299971380553,0.0
468,6.019334206185626e+30,6138615.601181066,15118.265941020558,0.0
469,6.017692123784237e+30,6138168.9060271755,13763.533876228272,0.0
470,5.812143919081731e+30,5077504.499106812,1.1789320501774046e+22,0.0
471,6.017687923088068e+30,6138168.589713068,13141.91211383314,0.0
472,6.01803063516027e+30,6138231.201487558,16008.887134416062,0.0
473,6.01768783523484e+30,6138168.585554925,13152.593210041501,0.0
474,6.018200812919848e+30,6138269.887210446,13903.755580394138,0.0
475,6.017848001268532e+30,6138192.914492349,15071.1770730677,0.0
476,5.521400087958835e+20,1524.354780923446,1.311231887911117e+24,1.0
477,6.017788223620329e+30,6138182.091234762,13452.808126338688,0.0
478,6.035060765460698e+30,6148374.668495799,23705.66963920924,0.0
479,6.018847111876774e+30,6138472.474702659,13506.213194967433,0.0
480,6.017844407258442e+30,6138192.041039319,14580.508160878402,0.0
481,6.024807035208761e+30,6141535.662277229,16517.888543838693,0.0
482,6.032327129793286e+30,6146618.272610983,15990.575328994419,0.0
483,6.022348947851438e+30,6139936.042530056,14704.68694317639,0.0
484,6.036878392756876e+30,6149452.088639758,30988.494091236134,0.0
485,6.018123272084461e+30,6138251.013085015,13798.455654618065,0.0
486,6.025916936895424e+30,6142144.7195681585,21249.069920713413,0.0
487,6.018489565331819e+30,6138349.784722386,14687.301277176819,0.0
488,6.017884088889574e+30,6138199.864584196,13691.105216946711,0.0
489,6.017685892902358e+30,6129731.337098088,4.383158300046822e+16,1.0
490,6.017726097673011e+30,6138172.835319483,13624.73863176946,0.0
491,6.021491599320666e+30,6139504.2803515205,20746.30804040707,0.0
492,6.01769055076678e+30,6138168.774950405,13139.574946389606,0.0
493,6.017814192136984e+30,6138186.406119995,14939.833853714757,0.0
494,6.018741255446619e+30,6138426.145480503,13710.66309827139,0.0
495,6.017692001691231e+30,6138168.8942019995,13395.574645991099,0.0
496,6.021623025602213e+30,6139542.343766805,19754.132882899008,0.0
497,6.017820430804991e+30,6138187.698962016,13308.522674225698,0.0
498,6.024188030214462e+30,6140837.017977962,18252.636632281457,0.0
499,6.045404392832482e+30,6157186.43557419,33087.99187570831,0.0
500,6.017687861469861e+30,6138168.586698433,13149.587175206332,0.0
501,6.017892727258582e+30,6138201.085548459,14771.565619042232,0.0
502,6.018237390748004e+30,6138278.992049212,16192.216975477282,0.0
503,6.017949208745369e+30,6138212.236266445,13896.730799858811,0.0
504,6.021992392822008e+30,6139763.338692081,14514.543333944128,0.0
505,6.019342973398133e+30,6138648.116382358,18208.303289641848,0.0
506,6.018468414542058e+30,6138343.306257337,16800.7565452954,0.0
507,6.017786883567454e+30,6138182.063811789,13576.110936860145,0.0
508,6.032927443872429e+30,6147141.181716861,13564.637542028246,0.0
509,6.025271097755125e+30,6141606.873440833,18739.844192012948,0.0
510,6.017768210397979e+30,6138178.910018107,13780.632576829423,0.0
511,6.018403457477652e+30,6138326.106322181,15568.565672828514,0.0
512,6.047701033630122e+30,6158309.801890288,61124.81121272815,0.0
513,6.018359631609389e+30,6138311.187073275,13928.716856180941,0.0
514,6.017934361801741e+30,6138210.297169881,13665.012201800799,0.0
515,6.017691379700047e+30,6138168.841868932,13584.678045056906,0.0
516,6.023654048959973e+30,6140524.647695118,23007.82291770336,0.0
517,6.021954644454565e+30,6139707.482096867,17375.628571536345,0.0
518,6.039792440345786e+30,6150758.226165246,14656.314334824972,0.0
519,6.019711589520858e+30,6138793.94343033,15978.397743301066,0.0
520,6.042352704246765e+30,6153930.283779793,27253.971135576736,0.0
521,6.02989213807e+30,6144926.224874282,13128.944449741419,0.0
522,6.020273306909975e+30,6139003.864889289,13255.431160828062,0.0
523,6.017690420275491e+30,6138168.763402551,13354.207044979317,0.0
524,6.017733487960255e+30,6138173.8295063265,14163.738726540121,0.0
525,6.02093800088342e+30,6139240.914738296,16179.378292450265,0.0
526,6.019966609640779e+30,6138846.751619011,14941.629343768742,0.0
527,6.018264843487181e+30,6138287.796287993,14237.965648442463,0.0
528,6.020811609956892e+30,6139257.307370781,15073.62988390711,0.0
529,6.020884543294851e+30,6139265.854949371,13322.092512631049,0.0
530,6.029653765338417e+30,6143973.717656564,15138.701023084595,0.0
531,6.02772328795624e+30,6143438.03613795,26478.804068976133,0.0
532,6.019493288112e+30,6138675.070547693,15560.541768456547,0.0
533,6.018264438113158e+30,6138287.233891312,13957.642108681172,0.0
534,6.017687846977514e+30,6138168.585987521,13175.054498595659,0.0
535,6.017687858356031e+30,6138168.586368182,13224.626636099118,0.0
536,6.017702919982274e+30,6138169.979589205,13500.89232184194,0.0
537,6.017891826579253e+30,6138200.730960904,15559.15088251187,0.0
538,6.017765523317782e+30,6138178.65730695,13502.477664576067,0.0
539,6.017695764727109e+30,6138169.236725756,13929.260902603502,0.0
540,6.020614641323809e+30,6139116.076992366,16272.755748719328,0.0
541,6.022643837438626e+30,6140157.919021477,15828.770095946844,0.0
542,6.026066888990183e+30,6141893.727004991,22874.22655466127,0.0
543,6.017718291374201e+30,6138171.775939482,13955.890617013027,0.0
544,6.017807843935375e+30,6138185.311014999,14639.571866258015,0.0
545,6.017997421663185e+30,6138222.657882174,14217.360436809879,0.0
546,6.020228651008928e+30,6138957.9274590695,16210.633740236146,0.0
547,6.017772601200347e+30,6138179.653940697,14146.198121202115,0.0
548,6.022714343661618e+30,6140056.956140912,22537.1596419187,0.0
549,6.019967405766091e+30,6138890.646717753,18611.029354374212,0.0
550,6.021579200206388e+30,6139662.148961079,15255.605648629275,0.0
551,6.02419427851335e+30,6140806.29851174,21731.17668554595,0.0
552,6.018470346134562e+30,6138341.3269497035,13524.67486852776,0.0
553,6.034785743043048e+30,6148420.070059585,30787.41206797803,0.0
554,6.021840896161432e+30,6139709.252043105,21985.26222315642,0.0
555,6.018045119404028e+30,6138232.939750367,16113.64988820276,0.0
556,6.018008401004056e+30,6138225.07931154,13435.282342199642,0.0
557,6.017689182164026e+30,6138168.669097447,13671.864523411714,0.0
558,6.022678790216605e+30,6140195.460873824,15030.009736085105,0.0
559,6.017842706644455e+30,6138191.751267713,13523.095092044623,0.0
560,6.017693741701195e+30,6138169.049699748,13281.648208216864,0.0
561,6.017687832944842e+30,6138167.221232719,16824035.5890838,1.0
562,6.030599964183234e+30,6144905.8374917265,16983.285537549054,0.0
563,6.021192339846638e+30,6139350.344111604,15668.883413061529,0.0
564,6.020135274487827e+30,6138928.118295061,19767.372632064522,0.0
565,6.025505873301144e+30,6141615.812337246,16871.380290325284,0.0
566,6.021212984701449e+30,6139379.174228532,20391.12063072609,0.0
567,6.017733673276162e+30,6138173.886170779,13472.23620582278,0.0
568,6.01795668028625e+30,6138214.077596049,13323.10516838384,0.0
569,6.017711529774675e+30,6138170.961731727,13534.610393588087,0.0
570,6.033019507147591e+30,6147188.723736481,17276.90519657038,0.0
571,6.017690038712934e+30,6138168.73423522,13298.207236800932,0.0
572,6.017803846291496e+30,6138184.73486763,13760.243534904055,0.0
573,6.019612779334165e+30,6138715.282948782,14565.499280695956,0.0
574,6.024916057916814e+30,6141384.248087694,13399.82620309792,0.0
575,6.020674490425179e+30,6139231.94872099,20074.489315700288,0.0
576,6.019016693304117e+30,6138515.977581886,17948.928098689234,0.0
577,6.018408977643999e+30,6138324.973450532,14068.429505626347,0.0
578,6.020590186017303e+30,6139155.59044568,15213.517722117196,0.0
579,6.017903579356014e+30,6138203.016525639,14074.460007275944,0.0
580,6.018169071038781e+30,6138266.3229175005,13398.607871350609,0.0
581,6.017687840962206e+30,6138168.585747538,13168.62960156025,0.0
582,6.018095975191936e+30,6138246.504910827,15023.972462096015,0.0
583,6.020729730174066e+30,6139170.028289947,19727.610115084313,0.0
584,6.02710567552722e+30,6142650.199413535,28022.986348391896,0.0
585,6.019968636890772e+30,6138848.5487624,14563.583421932102,0.0
586,6.017781061340465e+30,6138180.895494533,13442.538038663495,0.0
587,6.01787295522158e+30,6138197.130984946,13756.928003278,0.0
588,6.017691883843148e+30,6138168.883717178,13725.159735164258,0.0
589,6.017774085358404e+30,6138180.004596605,13659.630654928878,0.0
590,6.0176887706747e+30,6138168.641050907,13505.198625913741,0.0
591,6.026802185588248e+30,6142826.386506148,24771.169723851483,0.0
592,6.017688471108114e+30,6138168.621228111,13464.46890325988,0.0
593,6.017697148586765e+30,6138169.376473741,13412.65158767399,0.0
594,6.019174890015102e+30,6138576.051935104,17099.291156263207,0.0
595,6.017740039335744e+30,6138174.777648961,13125.66422574914,0.0
596,6.017687840049739e+30,6138168.585546452,13233.563290032329,0.0
597,6.018506653416778e+30,6138357.228808329,16566.30900419873,0.0
598,6.017853117874904e+30,6138193.699442305,15360.891103498143,0.0
599,6.018942336667875e+30,6138493.42878273,13433.737791905522,0.0
600,6.019581842243589e+30,6138741.270260557,16096.305743566694,0.0
601,6.021054858427382e+30,6139372.093343807,14941.078259706772,0.0
602,6.018427883054023e+30,6138330.490084414,16211.120207934993,0.0
603,6.017869628651372e+30,6138196.65526674,13294.011556554711,0.0
604,6.021028239135468e+30,6139345.128416367,15881.916556699749,0.0
605,6.021953434113508e+30,6139705.313450711,17565.355759262042,0.0
606,6.017702858227501e+30,6138169.963550122,14143.273383186468,0.0
607,6.022403173863974e+30,6140005.52402927,22530.747110444416,0.0
608,6.018080008438392e+30,6138243.8343680315,16029.765473928413,0.0
609,6.01768783234533e+30,6138064.170513192,745703313373.3726,1.0
610,6.018629488121275e+30,6138390.715755451,13893.358281520032,0.0
611,6.019409570109708e+30,6138679.479852132,14389.89116789342,0.0
612,6.01834350519936e+30,6138312.877655358,14442.293435869153,0.0
613,6.017808186859044e+30,6138185.392195659,13924.478587284724,0.0
614,6.027045446158172e+30,6142816.285121333,16802.881065162765,0.0
615,6.017688809837769e+30,6138168.6440906385,13307.364553282925,0.0
616,6.050981199271145e+30,6160611.3384579,20910.06302313837,0.0
617,6.017714052008212e+30,6138171.252935981,14260.584713768441,0.0
618,6.017687849872252e+30,6138168.585923152,13251.017563052013,0.0
619,6.044460388842878e+30,6154163.993882802,21762.99065045752,0.0
620,6.019809543663999e+30,6138821.134016164,19266.418423976214,0.0
621,6.017690995009968e+30,6138168.809259551,13515.496872268166,0.0
622,6.019013867602764e+30,6138511.705298808,17176.050550237735,0.0
623,6.019744272811535e+30,6138761.857773323,13475.24300240599,0.0
624,6.017796559376514e+30,6138183.5035083,14164.247095797311,0.0
625,6.017687832656903e+30,6138158.928848395,1977456946.802583,1.0
626,6.017688233258173e+30,6138168.606544293,13408.814743708492,0.0
627,6.095711207789133e+30,6279575.157011161,218214925647280.0,0.0
628,6.026054257268179e+30,6142111.204428393,18385.164354547673,0.0
629,6.018379137569441e+30,6138317.116620041,15066.710676984952,0.0
630,6.034215508449654e+30,6147183.631376986,33631.05685065973,0.0
631,6.038893242499457e+30,6151349.089062612,27868.846214879275,0.0
632,6.020410280759632e+30,6139029.540304858,16542.75625590363,0.0
633,6.018980903078922e+30,6138507.297960998,15867.049837000404,0.0
634,6.01780577813247e+30,6138184.984256607,14107.894315231855,0.0
635,6.024803735378822e+30,6141140.4917059615,20895.07074516676,0.0
636,6.021630744436968e+30,6139661.876960174,14386.417890398387,0.0
637,6.022125005981656e+30,6139781.923915991,13830.401095825158,0.0
638,6.017696472035862e+30,6138169.306085007,13113.95769912644,0.0
639,6.022067589122842e+30,6139898.11934009,19385.322468688108,0.0
640,6.018205153332245e+30,6138276.404730786,14978.710830554692,0.0
641,6.017812057075602e+30,6138186.375978008,14200.81377012023,0.0
642,6.082965600641114e+30,6193721.897755158,23615.06515014777,0.0
643,6.018557603684945e+30,6138371.048337352,17041.19089667807,0.0
644,6.025681753434113e+30,6142040.974470075,13368.180943671716,0.0
645,6.020498818702315e+30,6139120.435680268,18534.108757184862,0.0
646,6.017709053501544e+30,6138170.679702626,14074.459297835429,0.0
647,6.030480271677728e+30,6145375.355994861,26627.19492322742,0.0
648,6.018583324553282e+30,6138374.1057569785,14475.429796583845,0.0
649,6.01683317758109e+30,6041612.745082806,2.0132546680330162e+19,1.0
650,6.017835763691858e+30,6138190.31434688,14333.861133772376,0.0
651,6.017779865261656e+30,6138180.738485,14064.319906280736,0.0
652,6.017687918756746e+30,6138168.589186456,13264.192531926834,0.0
653,6.018906556890963e+30,6138473.067567779,15659.804824027726,0.0
654,6.017688645834071e+30,6138168.632549159,13494.383591184223,0.0
655,6.021196072961347e+30,6139355.964377105,17155.33854393389,0.0
656,6.018628861228957e+30,6138386.539600982,15665.392788606856,0.0
657,6.017954561454727e+30,6138213.3308535535,15044.767115360788,0.0
658,6.024691565403744e+30,6141225.802010497,25146.806578619504,0.0
659,6.026843521514172e+30,6142277.305866749,20452.712735230452,0.0
660,6.017950486812592e+30,6138212.588552339,15346.850540848714,0.0
661,6.019962479110878e+30,6138844.92288374,16761.904748065113,0.0
662,6.018750891234458e+30,6138437.937817737,15273.63424463662,0.0
663,6.017714204960668e+30,6138171.283774527,14397.786254131915,0.0
664,6.017690126984137e+30,6138168.74018399,13453.608692008775,0.0
665,6.017689647543242e+30,6138168.704788073,13139.658915809148,0.0
666,6.017687900085664e+30,6138168.588518226,13159.969506767336,0.0
667,6.018180700638023e+30,6138269.505757025,14995.363987039327,0.0
668,6.01827837139356e+30,6138290.469622789,15377.657753654848,0.0
669,6.017744183350626e+30,6138175.319125308,13170.638173816433,0.0
670,6.017718351128064e+30,6138171.785111889,13429.148832044495,0.0
671,6.0199008357812e+30,6138842.267740752,16919.927281542787,0.0
672,6.02235695229114e+30,6139947.093813601,14348.597131533437,0.0
673,6.019715747962918e+30,6138770.912540988,17546.093045711626,0.0
674,6.021514801950758e+30,6139534.836358913,18790.036608722134,0.0
675,6.017697728048142e+30,6138169.431936314,13686.520064269227,0.0
676,6.019550966324889e+30,6138692.440100405,17584.013023632688,0.0
677,6.021481204314258e+30,6139489.301522962,13287.457152214303,0.0
678,6.025926932470604e+30,6142157.048897204,21905.35140206803,0.0
679,6.020965343342648e+30,6139274.965778407,19519.318405497976,0.0
680,6.017708763162341e+30,6138170.635461679,13914.812982323521,0.0
681,6.017688521941323e+30,6138168.6245711865,13472.910505928543,0.0
682,6.017688226351381e+30,6138168.606818326,13142.12839547842,0.0
683,6.031598627280776e+30,6145559.391902241,21203.154263795055,0.0
684,6.017724569057799e+30,6138172.606615457,13568.68292825186,0.0
685,6.019280066234394e+30,6138602.222773404,16543.612765662125,0.0
686,6.018008445277522e+30,6138225.211679147,13654.739164031396,0.0
687,6.017688328005033e+30,6138168.612576335,13331.761432253263,0.0
688,6.063805804756625e+30,6178956.341570787,17659.600842389365,0.0
689,6.017687859272235e+30,6138168.5863191085,13260.640114295746,0.0
690,6.020850440846635e+30,6139244.276198551,16695.22350308101,0.0
691,6.067968580435067e+30,6187316.90346874,14613.78009297693,0.0
692,6.017688599570897e+30,6138168.629654876,13462.717131339567,0.0
693,6.017826398519753e+30,6138188.739931022,14257.052107569401,0.0
694,6.017755555122968e+30,6138177.023254385,14330.68146040249,0.0
695,6.017790288031763e+30,6138182.749727811,13757.313132866848,0.0
696,6.020241406677569e+30,6138971.374360804,15081.868187733508,0.0
697,6.018662629154697e+30,6138398.593618792,15755.033012284424,0.0
698,6.030381729882665e+30,6145251.394802578,22021.266673915517,0.0
699,6.017722967456396e+30,6138172.378270168,13373.196813366334,0.0
700,6.018029420820638e+30,6138229.758882247,14574.500368811048,0.0
701,6.01774229668646e+30,6138175.102894298,14720.714747554006,0.0
702,6.020824329300139e+30,6139195.88351672,17862.68557008482,0.0
703,6.019901481522299e+30,6138868.118574406,14758.407853780789,0.0
704,6.022006538639386e+30,6139781.919904322,16603.8920491473,0.0
705,6.017830346173528e+30,6138189.810503103,13717.968550580314,0.0
706,6.01943869446915e+30,6138651.301065342,15557.684546128357,0.0
707,6.017788268449123e+30,6138182.166256706,13891.365052007386,0.0
708,6.036912179992254e+30,6148997.3074188465,13299.277114579232,0.0
709,6.021862804143433e+30,6139749.913033091,13818.378732374726,0.0
710,6.018039522134408e+30,6138232.040538117,13432.256992887756,0.0
711,6.018045996214352e+30,6138234.95887238,15952.313492014771,0.0
712,6.020494700694011e+30,6139056.036544519,16529.4275731855,0.0
713,6.02715272342268e+30,6142481.518526783,22022.85190984378,0.0
714,6.017960254041602e+30,6138214.50836309,13221.588039549151,0.0
715,6.024500984239772e+30,6141042.156265516,23305.43169638229,0.0
716,6.018629114166709e+30,6138386.618797628,15544.071750408755,0.0
717,6.072304178598843e+30,6231940.601595697,47260.98023765534,0.0
718,6.017954061245605e+30,6138214.284285918,13496.605459502654,0.0
719,6.032032913208926e+30,6146472.289953511,22038.9959346084,0.0
720,6.024172213826907e+30,6141050.275548363,14979.910670954283,0.0
721,6.019319874549655e+30,6138628.664310481,14057.74841574522,0.0
722,6.032052760349279e+30,6145852.171694891,18216.84110755796,0.0
723,6.021629819853465e+30,6139550.1376449345,13348.676597522926,0.0
724,6.017689013042425e+30,6138168.657697141,13502.957890936643,0.0
725,6.017722049904237e+30,6138172.290804931,13767.464748337668,0.0
726,6.017692882575143e+30,6138168.970505391,13334.366023940715,0.0
727,6.034745989533374e+30,6148021.011471917,14933.81552975194,0.0
728,6.017695697789535e+30,6138169.232204462,13733.819852433435,0.0
729,6.018308131311439e+30,6138301.674613383,15280.528539276253,0.0
730,5.983116548466147e+30,5710384.562605756,9.536935735359916e+20,1.0
731,6.019349696482702e+30,6138628.535367537,13200.636713862896,0.0
732,6.017688601547064e+30,6138168.6303703375,13210.293575766314,0.0
733,6.03539096319939e+30,6148978.881368855,26296.27662541194,0.0
734,6.019791630333802e+30,6138804.649533168,13861.354134020883,0.0
735,6.029547445143943e+30,6143874.689653606,13727.441957339492,0.0
736,6.018343927142351e+30,6138307.230505847,15667.420016688124,0.0
737,6.019833521448467e+30,6138804.610242676,19595.882310003984,0.0
738,6.031299687416436e+30,6145096.275251143,14530.112200944255,0.0
739,6.017698405538145e+30,6138169.499071157,13550.713794028197,0.0
740,6.017715287596745e+30,6138171.441027797,13792.426094952409,0.0
741,925808010851644.6,18.109645326299905,1.3112323376703244e+24,1.0
742,6.018190069946479e+30,6138267.452352882,15217.593888570593,0.0
743,6.01810478917756e+30,6138248.31661225,13142.598249910203,0.0
744,6.026768264615786e+30,6142458.099021443,22055.419310885045,0.0
745,6.0177654661585e+30,6138178.425094091,14846.58540985655,0.0
746,6.027327500263692e+30,6142560.444950407,14123.167627414878,0.0
747,6.017689791559686e+30,6138168.715880811,13215.58230579617,0.0
748,6.020611379899875e+30,6139122.28697829,15505.663129185166,0.0
749,6.018835014616666e+30,6138449.444285885,16633.7896916278,0.0
750,6.029455930513015e+30,6144639.477453149,18705.938308641344,0.0
751,6.01801250488562e+30,6138226.449160696,13182.238172642932,0.0
752,6.017837554172785e+30,6138190.921204015,14034.2121075982,0.0
753,6.01819910107782e+30,6138269.890606433,15706.09240416088,0.0
754,6.017753446615482e+30,6138176.667403172,13176.321892344722,0.0
755,6.017695310520973e+30,6138169.197889605,13696.398071887234,0.0
756,6.018579277708974e+30,6138372.051829404,15786.510632838257,0.0
757,6.017908786959215e+30,6138204.245604953,14408.156413653416,0.0
758,6.01769019968568e+30,6138168.745658509,13512.932557162334,0.0
759,6.020396570446348e+30,6139015.197866687,19366.21044616727,0.0
760,6.019447364064195e+30,6138658.225556629,14116.60165105199,0.0
761,6.021678272616911e+30,6139631.572084328,16902.547230896176,0.0
762,6.02363806016679e+30,6140522.952494733,20200.153178288037,0.0
763,6.018038727329521e+30,6138233.5116374325,14652.609745280575,0.0
764,6.017911162139813e+30,6138204.63780498,15468.108359986069,0.0
765,6.035862017772682e+30,6149259.964052241,17693.78985996577,0.0
766,6.017703382140204e+30,6138170.03065576,13808.407730012583,0.0
767,6.018561012493217e+30,6138377.406506526,15078.141046088751,0.0
768,6.01772293846117e+30,6138172.416886988,13461.430605229045,0.0
769,6.019094401195588e+30,6138532.659463806,14392.776708302286,0.0
770,6.020937929652511e+30,6139240.430585897,15428.423926168574,0.0
771,6.017688984020924e+30,6138168.655538937,13501.248193876414,0.0
772,6.017688142805562e+30,6138168.600993991,13482.040147891954,0.0
773,6.017791608257254e+30,6138182.589528472,14358.978250041162,0.0
774,6.046790453642834e+30,6155997.79933158,45841.13831469885,0.0
775,6.017688067445372e+30,6138168.597209168,13258.104155932693,0.0
776,6.017689331081004e+30,6138168.681113659,13152.99470681671,0.0
777,6.018289132539048e+30,6138295.074166077,14299.014670566743,0.0
778,6.017694622468081e+30,6138169.127112468,13990.07066300198,0.0
779,6.017746059989397e+30,6138175.654344732,14026.104254969086,0.0
780,6.024800435589862e+30,6141147.9926421875,20043.83407597116,0.0
781,6.017687842916668e+30,6138168.585725763,13209.980810039478,0.0
782,6.023609081873767e+30,6140760.027203483,15088.482410260127,0.0
783,6.017726188563437e+30,6138172.78741509,14335.858164401494,0.0
784,6.017745566307137e+30,6138175.4862470785,13427.965775143335,0.0
785,6.018162148189528e+30,6138262.374647975,15363.051828261581,0.0
786,6.02932293373444e+30,6143996.409569581,29786.08743677506,0.0
787,6.017812523291004e+30,6138186.182581895,13344.678071946491,0.0
788,6.039314542368565e+30,6151056.711627859,37703.88161983303,0.0
789,6.017758702784432e+30,6138177.536583815,14714.557582083862,0.0
790,6.028224510177569e+30,6143389.675815082,15193.683974173695,0.0
791,6.01772764080702e+30,6138172.981059881,13440.65773497512,0.0
792,6.025488239707286e+30,6141855.759431563,15189.947537551705,0.0
793,6.018308878293099e+30,6138299.445182738,15776.692411898315,0.0
794,6.017776676781421e+30,6138180.439301771,13996.08416156727,0.0
795,6.017695260997825e+30,6138169.187415635,13882.220978489453,0.0
796,6.01770057016622e+30,6138169.719402119,13798.1014391403,0.0
797,6.0180780550616e+30,6138240.4683176465,15346.078277505174,0.0
798,6.021250514279587e+30,6139424.996215965,17605.508095461566,0.0
799,6.036132908942625e+30,6149583.388958707,31109.33154519742,0.0
800,6.017687840488751e+30,6138168.585685231,13185.518599342338,0.0
801,6.019341810358054e+30,6138636.739516965,15343.006088107973,0.0
802,6.022507604491002e+30,6139975.780569651,23003.713929032623,0.0
803,6.050690522154381e+30,6162036.319354165,41009.847130176146,0.0
804,6.022721768449568e+30,6140096.640474195,16265.966205375184,0.0
805,6.020063688805153e+30,6138914.292783128,17382.345288915916,0.0
806,6.017703270282372e+30,6138170.018622015,13566.36251073074,0.0
807,6.020341408980855e+30,6139018.332901131,17985.15292447552,0.0
808,6.022127470418729e+30,6139787.035258009,13438.091794590939,0.0
809,6.01792943184446e+30,6138209.215183311,15169.94018368403,0.0
810,6.088661320815616e+30,6125307.36421071,1.6628176579184165e+19,0.0
811,6.018266515781025e+30,6138291.277119639,13416.874026295842,0.0
812,6.017687852390893e+30,6138168.586317978,13138.36347215692,0.0
813,6.035489684009062e+30,6149064.6307258485,25713.518677756365,0.0
814,6.022204258991906e+30,6139988.682359869,17105.72307461698,0.0
815,6.019188115546933e+30,6138574.832169737,17614.32109632668,0.0
816,6.017697764951999e+30,6138169.438121921,13891.281067452062,0.0
817,6.02306094221091e+30,6140374.370578752,16306.92961467946,0.0
818,6.017688126026401e+30,6138168.6008614525,13139.806725662562,0.0
819,6.021045825732641e+30,6139363.089209787,15238.837775245347,0.0
820,6.017709785303547e+30,6138170.751553741,13207.591030306896,0.0
821,6.017725350907274e+30,6138172.687487123,13934.639352057115,0.0
822,6.041961883001109e+30,6154145.247375232,32993.203007947246,0.0
823,6.017724827297847e+30,6138172.612992164,13604.726581604902,0.0
824,6.021836151729734e+30,6139696.284040502,18306.025944628203,0.0
825,6.018280911436633e+30,6138293.646074429,13146.843106177854,0.0
826,6.017961880392353e+30,6138215.106694344,14712.643711450086,0.0
827,6.01842264490378e+30,6138331.741529942,13414.305597473149,0.0
828,6.018991277427794e+30,6138505.257779968,13863.942081600577,0.0
829,6.018555689290868e+30,6138368.521636865,16341.00430921818,0.0
830,6.030174148412989e+30,6144836.846476183,20952.69420844007,0.0
831,6.032923375847004e+30,6146154.408156941,14893.422624405626,0.0
832,6.017689755056616e+30,6138168.712994279,13158.593306234556,0.0
833,6.017687903089443e+30,6138168.588598311,13186.585047675071,0.0
834,6.019426563929297e+30,6138668.468188016,13843.51554003243,0.0
835,6.017911211292536e+30,6138205.380702571,15699.228941472444,0.0
836,6.01848463992989e+30,6138350.475842765,14626.767822218406,0.0
837,6.018294737106499e+30,6138296.608905658,14457.946906501104,0.0
838,6.0200434782618e+30,6138879.971937309,14528.493987726582,0.0
839,6.020219524565894e+30,6138948.352347835,17399.291136146097,0.0
840,6.017827845182518e+30,6138189.310735584,14855.034442603148,0.0
841,6.017890077900229e+30,6138200.856334248,15407.455318447272,0.0
842,6.01769335797652e+30,6138169.015496464,13815.02605807305,0.0
843,6.018140700095977e+30,6138257.008070723,15632.490759550152,0.0
844,6.020578533754821e+30,6139144.171579516,15690.370824975633,0.0
845,6.019624503340372e+30,6138721.982120848,17048.96263241193,0.0
846,6.017779982565523e+30,6138180.77959696,13879.65287054554,0.0
847,6.019826017156304e+30,6138811.461978776,13779.477084086999,0.0
848,6.017864249703007e+30,6138196.361929089,15042.17042739534,0.0
849,6.024499121354293e+30,6141037.869357989,23497.62222988769,0.0
850,6.018307801959112e+30,6138301.460628379,15341.684312587566,0.0
851,6.017728201158551e+30,6138173.057362365,13764.282701980293,0.0
852,6.017701670978281e+30,6138169.847688276,13343.50608097907,0.0
853,6.026307486802666e+30,6141959.169304105,24452.150936348797,0.0
854,6.022015154876192e+30,6139797.603210123,17039.897797922353,0.0
855,6.047811161978821e+30,6158159.885216714,69882.85454844491,0.0
856,6.017912641923846e+30,6138204.927807462,13339.17981787034,0.0
857,6.01777068858268e+30,6138179.305299718,13545.90729662216,0.0
858,6.017822971067344e+30,6138188.328634495,14821.14754190828,0.0
859,6.019706840144707e+30,6138762.566227692,18360.5150861301,0.0
860,6.028735193684909e+30,6143662.683779279,19755.100548296174,0.0
861,6.021264878074113e+30,6139509.262992059,16559.14643098556,0.0
862,6.01772664663979e+30,6138172.922188011,14089.241447032335,0.0
863,6.017688001005953e+30,6138168.593331242,13337.928873169443,0.0
864,6.018709872825277e+30,6138413.771592129,15290.687930050426,0.0
865,6.061060624174493e+30,6170491.268754353,42884.57619095882,0.0
866,6.018267705081687e+30,6138290.934978483,15352.649412690891,0.0
867,6.017760858324169e+30,6138177.736429559,14227.204241363112,0.0
868,6.018304280671411e+30,6138299.198457355,16054.617898095108,0.0
869,6.027062168765175e+30,6142966.601342966,18843.193628438574,0.0
870,6.017960527830735e+30,6138214.576864541,15731.211351757487,0.0
871,6.018620228646738e+30,6138389.714681405,14369.173087741474,0.0
872,6.036955314852745e+30,6148745.608120694,14942.818096157873,0.0
873,6.018886370250054e+30,6138472.889342871,16012.443238870539,0.0
874,6.020222651161611e+30,6139002.376692836,14700.20463868515,0.0
875,6.017690047839205e+30,6138168.734614184,13262.656319991203,0.0
876,6.017933988747134e+30,6138209.180185724,13310.966578215068,0.0
877,6.017775364514775e+30,6138180.23645799,13130.86176949088,0.0
878,6.017704707389344e+30,6138170.183660574,13127.326742443673,0.0
879,6.018638142870732e+30,6138391.978554988,13357.062484701513,0.0
880,6.017866420094306e+30,6138196.121164984,14812.339238274517,0.0
881,6.017960192926741e+30,6138215.235057246,15312.998274903923,0.0
882,6.018130887046303e+30,6138254.7331046555,13962.203970239354,0.0
883,6.026385864008914e+30,6142504.02504476,15933.007977525634,0.0
884,6.018088857372114e+30,6138243.398430628,15813.040141287584,0.0
885,6.020495160727744e+30,6139057.158912629,16868.964869894113,0.0
886,6.017989770503132e+30,6138220.781487091,13790.308397495384,0.0
887,6.032323976743974e+30,6145928.213363259,32396.62162962232,0.0
888,6.017688224864933e+30,6138168.606250319,13335.681208209864,0.0
889,6.020312107989615e+30,6138987.012931607,13685.478161263556,0.0
890,4.4215255559148865e-05,6.570428292200325e-06,1.311232337733786e+24,1.0
891,6.027747842008835e+30,6143118.528287202,21626.80300066272,0.0
892,6.018685327713362e+30,6138403.892978556,14396.855265303613,0.0
893,6.018633305766506e+30,6138388.804559824,14264.650643134406,0.0
894,6.018558398174309e+30,6138366.520473849,17182.53335378591,0.0
895,6.018068528177003e+30,6138238.337605398,14902.93552694198,0.0
896,6.028543618099736e+30,6143961.546838325,13494.152650310894,0.0
897,6.018357031041345e+30,6138310.08119183,15007.412443571959,0.0
898,6.018143053829003e+30,6138256.068774011,14426.008589500983,0.0
899,6.017729667523975e+30,6138173.253357912,13398.202216001559,0.0
900,6.04453987324647e+30,6156198.289883097,42080.34294079646,0.0
901,6.017732551811635e+30,6138173.641969782,14594.11598220737,0.0
902,6.01933827139677e+30,6138644.207984917,18557.147209051043,0.0
903,6.017782212565636e+30,6138181.206114865,14468.98068849498,0.0
904,6.017687971707413e+30,6138168.591637961,13386.377721621164,0.0
905,6.018177145630715e+30,6138267.501050567,16119.490687276777,0.0
906,6.017851226508227e+30,6138193.00153033,14936.147033930049,0.0
907,6.020334699688792e+30,6139011.262582335,18528.28240339697,0.0
908,6.019979845519576e+30,6138859.440794308,13223.704996003868,0.0
909,6.017811747293333e+30,6138186.082213427,13310.160033087319,0.0
910,6.017698407939167e+30,6138169.498532145,13372.74334617054,0.0
911,6.018413482682371e+30,6138330.952568081,16171.709601857341,0.0
912,6.018307477070127e+30,6138301.24987544,15402.837417733661,0.0
913,6.018694607697369e+30,6138410.111150609,17268.84177804263,0.0
914,6.020089310000045e+30,6138954.9061197,19417.110113551003,0.0
915,6.022003927712854e+30,6139777.228664334,16467.605555136233,0.0
916,6.024086871470356e+30,6140957.56368489,16425.54485970093,0.0
917,6.027941096674627e+30,6143371.041490361,18223.35658249609,0.0
918,6.017713808291071e+30,6138171.226197163,13147.642485042592,0.0
919,6.019380089802272e+30,6138631.251214303,14696.0375662913,0.0
920,6.019485633508429e+30,6138692.080300756,16382.48114237029,0.0
921,6.018980865152758e+30,6138497.309142384,15338.172015834367,0.0
922,6.023655116985825e+30,6140525.430491562,23133.379622129825,0.0
923,6.017796787356945e+30,6138183.805158021,13752.939246343794,0.0
924,6.024928078471906e+30,6141247.384069575,15320.325583007272,0.0
925,6.01789914327421e+30,6138202.685687091,15515.617379710797,0.0
926,6.018103686369176e+30,6138246.573470605,14662.657853063964,0.0
927,6.017777670180534e+30,6138180.511819666,13411.52302665206,0.0
928,6.018077556032772e+30,6138241.552793045,14809.370098722507,0.0
929,6.017697901849046e+30,6138169.449056313,13628.788524500898,0.0
930,6.022176052035439e+30,6139860.210703112,18672.65930053676,0.0
931,6.017690419389185e+30,6138168.763109971,13428.790979635398,0.0
932,6.02162561929569e+30,6139548.100031564,18298.93724644224,0.0
933,6.02576679900936e+30,6141829.982782119,18171.444698712166,0.0
934,6.019650666777498e+30,6138746.0872382745,14460.747510338253,0.0
935,6.038304901812466e+30,6150395.697780142,23571.515445006786,0.0
936,6.017690953644658e+30,6138168.805782009,13532.4948288665,0.0
937,6.018162288913499e+30,6138262.457584196,15325.363259850808,0.0
938,6.023413151751397e+30,6140408.7461317,17933.02409970094,0.0
939,6.081904333238407e+30,6036853.5353136165,6.0173743258381844e+19,0.0
940,6.018513879670256e+30,6138353.93172232,17176.607442392196,0.0
941,6.017688898513353e+30,6138168.650420581,13177.472767571682,0.0
942,6.023078262678296e+30,6140413.079824043,14294.001360112043,0.0
943,6.020835700834833e+30,6139209.960186744,16291.34770987833,0.0
944,6.017728539378543e+30,6138173.1563783735,14057.653615770405,0.0
945,6.017737740627584e+30,6138174.399187172,13162.007081319913,0.0
946,6.017724001794759e+30,6138172.513984065,13401.150742211576,0.0
947,6.017842536849955e+30,6138191.524817886,15152.436494431964,0.0
948,6.017704496349658e+30,6138170.150991113,14061.920461251053,0.0
949,6.080657112999115e+30,5894246.906352457,2.783153837821982e+20,0.0
950,6.017688190120496e+30,6138168.604051846,13367.50169339096,0.0
951,6.018538079936049e+30,6138361.4801723715,14337.96308911503,0.0
952,6.017935919060549e+30,6138209.710794878,13870.341035893762,0.0
953,6.019330563446954e+30,6138619.707006617,13679.686669428987,0.0
954,6.021673703732974e+30,6139623.335775209,16648.163694235358,0.0
955,6.041160424927081e+30,6153570.078354225,15975.582373412908,0.0
956,6.017689009315344e+30,6138168.658151656,13177.898666259734,0.0
957,6.017723851803938e+30,6138172.521529618,13869.655833065135,0.0
958,6.028132761885295e+30,6143155.034594261,19399.84695309567,0.0
959,6.074876820556206e+30,6192690.785545914,61935.02489887434,0.0
960,6.018043722101805e+30,6138234.223708905,14849.696611720177,0.0
961,6.01777947531386e+30,6138180.621973987,14871.534458345344,0.0
962,6.018229739714551e+30,6138282.538881431,14540.722606482395,0.0
963,6.032024335932793e+30,6145532.668030102,27429.134897906137,0.0
964,6.018799627437853e+30,6138440.608376306,17098.842247289842,0.0
965,6.025491810791067e+30,6141572.13879532,18248.09123343214,0.0
966,6.018627841572916e+30,6138386.493676271,16380.395871758767,0.0
967,6.025731881449961e+30,6141948.613865634,24501.86485177437,0.0
968,6.018053103913713e+30,6138236.097933207,13842.10976893401,0.0
969,6.019013055219311e+30,6138510.341658088,16877.318328672496,0.0
970,6.017752713105414e+30,6138176.594653071,13739.45521753238,0.0
971,6.017688047785385e+30,6138168.596457224,13118.614284646772,0.0
972,6.04402158318955e+30,6155389.396597948,54663.87946835175,0.0
973,6.024813794900335e+30,6141135.885599374,22321.232685892086,0.0
974,6.017701628957146e+30,6138169.835872449,13742.676391054552,0.0
975,6.018494018588105e+30,6138355.043365772,15894.963144387038,0.0
976,6.023919605001042e+30,6140660.699715179,16517.269024397167,0.0
977,6.017768845526612e+30,6138178.952089084,14251.033508577404,0.0
978,6.022445093627894e+30,6140053.291492924,20881.556686935095,0.0
979,6.019753218365025e+30,6138780.468586038,16588.685244675085,0.0
980,6.017687996653748e+30,6138168.593289711,13258.91874480889,0.0
981,6.027430082123218e+30,6142679.6103638075,16027.832295835877,0.0
982,6.019093352642812e+30,6138533.173371461,15257.240797911443,0.0
983,6.017688291659097e+30,6138168.610796422,13130.854109289445,0.0
984,6.040513257701307e+30,6151220.846085838,20697.751721476583,0.0
985,6.01768820749667e+30,6138168.605160848,13338.041906472445,0.0
986,2.812428414226187e+25,56509.48661038736,1.3106143017423266e+24,1.0
987,6.017691716085929e+30,6138168.868739159,13839.989869322279,0.0
988,6.017688954964176e+30,6138168.653990445,13314.688101993519,0.0
989,6.018211528565174e+30,6138275.912042461,14268.994594766757,0.0
990,6.017906940511572e+30,6138203.863666087,14440.780251377271,0.0
991,6.018008398373548e+30,6138225.050519245,13378.38162037239,0.0
992,6.017692429335425e+30,6138168.930138874,13849.597212780007,0.0
993,6.040750610122966e+30,6152461.331535927,15456.963864052872,0.0
994,6.017810261836111e+30,6138185.754985749,14789.403635360735,0.0
995,6.017816687803431e+30,6138187.408214972,14520.893927708987,0.0
996,6.01989183612871e+30,6138827.317311573,15632.721621999717,0.0
997,6.018392260941379e+30,6138319.577427202,14523.850562707526,0.0
998,6.031401734168893e+30,6145564.384739415,25095.337694256108,0.0
999,6.01768783244272e+30,6138115.171832655,139830195110.21674,1.0
