,0,1,2,3
0,1.9884285826808366e+30,116863.75045870159,131402157332242.72,0.0
1,1.988428582680372e+30,116863.75275316146,135092035811045.66,0.0
2,1.9884285826808386e+30,116863.73630166381,136682076852831.17,0.0
3,1.988428582680842e+30,116863.7511402187,131156177741643.89,0.0
4,1.9884285826757996e+30,116863.82491344537,154632103568262.34,0.0
5,1.9884285826808462e+30,116863.74906494704,131923355025117.56,0.0
6,1.9884285826806652e+30,116863.71840975358,145114392064020.06,0.0
7,1.988428582680473e+30,116863.72627347171,144010112200964.5,0.0
8,1.9884285826746807e+30,116863.85755141161,153823830309566.16,0.0
9,1.9884285826737637e+30,116863.84200254137,170558430457514.94,0.0
10,1.9884285826808422e+30,116863.73799629942,136026326635621.0,0.0
11,1.988428582613659e+30,116865.44821840727,229138037279335.25,0.0
12,1.9884285826581967e+30,116864.28186776859,169157649420568.9,0.0
13,1.9884285826798956e+30,116863.74543593166,142529157314816.38,0.0
14,1.9884285826808304e+30,116863.74942148851,131778019008293.53,0.0
15,1.9884285826596024e+30,116864.25654204731,163070877901736.12,0.0
16,1.9884285826282711e+30,116865.0889399013,194780208931158.16,0.0
17,1.9884285826788364e+30,116863.80380278976,131362266781766.7,0.0
18,1.9884285826808445e+30,116863.7367242723,136464637017601.34,0.0
19,1.988428582680808e+30,116863.72227941961,142234267562823.88,0.0
20,1.9884285826720684e+30,116863.88035218383,174158508980872.2,0.0
21,1.9884285826560372e+30,116864.38955281852,150371510413705.25,0.0
22,1.9884285826789577e+30,116863.74842606515,151057661886865.84,0.0
23,1.9884285826414298e+30,116864.82274646561,145325205620138.62,0.0
24,1.988428582676546e+30,116863.76563952392,170645458210562.66,0.0
25,1.988428582673912e+30,116863.91043654348,141495304250041.78,0.0
26,1.9884285826785133e+30,116863.79611188451,137367369101834.97,0.0
27,1.988428582090991e+30,116882.26228273161,231913358219298.3,0.0
28,1.988428582679027e+30,116863.74558965176,151426356188163.62,0.0
29,1.9884285826808386e+30,116863.74889062645,131970668866850.88,0.0
30,1.9884285826799651e+30,116863.71488591481,153690789188652.22,0.0
31,1.9884285826805737e+30,116863.7343109165,139972523839600.4,0.0
32,1.9884285826805244e+30,116863.73513168839,140151287079736.06,0.0
33,1.988428582627298e+30,116865.16356217081,174344692792947.4,0.0
34,1.988428582680844e+30,116863.74598806445,133031542084248.42,0.0
35,1.988428582680844e+30,116863.7447041132,133506460891535.83,0.0
36,1.9884285826808442e+30,116863.73944455018,135468372639505.9,0.0
37,1.9884285826807896e+30,116863.72344725399,141972500595967.66,0.0
38,1.9884285826464845e+30,116864.53676297922,205186895484083.3,0.0
39,1.988428582680837e+30,116863.73659178107,136591616168883.38,0.0
40,1.988428582601119e+30,116866.01315226355,144068830636236.12,0.0
41,1.988428582671282e+30,116863.97018731867,146425749981656.1,0.0
42,1.9884285826491816e+30,116864.63508780781,131804741531095.03,0.0
43,1.9884285826806933e+30,116863.71337246853,146775372485781.3,0.0
44,1.9884285826775397e+30,116863.75964356796,161887721228432.3,0.0
45,1.9884285826807896e+30,116863.73976661278,135867686130116.34,0.0
46,1.9884285826808445e+30,116863.73965597618,135365923671194.95,0.0
47,1.988428582680679e+30,116863.74023739168,136746474553738.23,0.0
48,1.988428582665562e+30,116864.09890237721,158711575819294.3,0.0
49,1.9884285826806272e+30,116863.72441040674,143212860347473.4,0.0
50,1.9884285826808425e+30,116863.74865918548,132056413295156.53,0.0
51,1.9884285826559393e+30,116864.4013464118,146860024713542.8,0.0
52,1.9884285826801906e+30,116863.72417306353,147692467868371.7,0.0
53,1.9884285826805957e+30,116863.75567911482,131870157372270.0,0.0
54,1.9884285826804054e+30,116863.70933923183,151300632076044.78,0.0
55,1.9884285826707984e+30,116863.96611721053,153297704489908.25,0.0
56,1.9884285779694685e+30,117051.33909863181,496985857936933.0,0.0
57,1.9884285826781516e+30,116863.7633489639,153712981111074.6,0.0
58,1.9884285826807947e+30,116863.73286867558,138369340391547.62,0.0
59,1.988428582680845e+30,116863.73715624162,136309802400935.56,0.0
60,1.9884285826595883e+30,116864.25846860756,162439024294113.44,0.0
61,1.9884285826619097e+30,116864.24178810831,143018884687625.88,0.0
62,1.9884285826808448e+30,116863.75091559651,131259596160581.1,0.0
63,1.988428582680839e+30,116863.74795108844,132433781139719.33,0.0
64,1.9884285826808087e+30,116861.86340332862,2187640949304220.2,1.0
65,1.9884285826766694e+30,116863.80209915829,154263021474987.25,0.0
66,1.9884285826800566e+30,116863.74301898015,141819267865730.28,0.0
67,1.988428582680847e+30,116863.74805898288,132275706166690.36,0.0
68,1.9884285826748994e+30,116863.88526356725,140779350493580.8,0.0
69,1.9884285826808186e+30,116863.73422195407,137639168861140.16,0.0
70,1.9884285826764186e+30,116863.83670013282,143456284798685.44,0.0
71,1.9884285825775927e+30,116866.62242241965,184193555138643.22,0.0
72,1.9884285824239988e+30,116871.36760238331,197391600492546.6,0.0
73,1.9884285826774935e+30,116863.79308820605,149006870493946.97,0.0
74,1.9884285826804988e+30,116863.74197754334,137839444823187.62,0.0
75,1.9884285826808343e+30,116863.74908470621,132044089175817.5,0.0
76,1.9884285826649375e+30,116864.05762538927,183649333191596.44,0.0
77,1.988428582632259e+30,116864.99235384757,185687951781439.7,0.0
78,1.9884285826808076e+30,116863.74805081172,132659747373423.5,0.0
79,1.9884285825061026e+30,116868.74565453317,216181180979043.4,0.0
80,1.9884285826789836e+30,116863.79957298549,131462347919511.6,0.0
81,1.9884285826808467e+30,116863.74473640448,133488697247684.72,0.0
82,1.988428576581805e+30,117120.39105872002,456148902425472.5,0.0
83,1.9884285826363942e+30,116864.86175108324,190165384435471.0,0.0
84,1.9884285826616763e+30,116864.27543462248,132923346726899.72,0.0
85,1.9884285826807006e+30,116863.74475103573,134867581228661.33,0.0
86,1.988428582680846e+30,116863.74739880035,132522244966119.22,0.0
87,1.988428581338111e+30,116908.86705516132,323384272214985.5,0.0
88,1.9884285826803398e+30,116863.71609545943,149318613320008.47,0.0
89,1.988428582676722e+30,116863.77159280455,166120072490113.0,0.0
90,1.9884285811436446e+30,116915.89205203234,494447815439504.75,0.0
91,1.9884285826807673e+30,116863.74948670484,132514117586301.61,0.0
92,1.9884285826439879e+30,116864.77764874107,134448496164443.97,0.0
93,1.988428582679289e+30,116863.7213904951,158295616318536.5,0.0
94,1.988428582679353e+30,116863.78731719033,132324765233241.7,0.0
95,1.9884285819903287e+30,116885.68870874557,237360837486687.06,0.0
96,1.9884285824447236e+30,116870.82030371107,150401321467973.66,0.0
97,1.9884285826808425e+30,116863.7509592106,131284537572114.23,0.0
98,1.988428582679362e+30,116863.77455068126,136929745002152.14,0.0
99,1.988428582666859e+30,116864.00232644966,184247452884449.38,0.0
100,1.9884285826806145e+30,116863.73917046373,137764678903074.84,0.0
101,1.988428582614661e+30,116865.61370665209,142906420757404.56,0.0
102,1.9884285826350553e+30,116864.97349098045,158983491583879.8,0.0
103,1.9884285826805346e+30,116863.72928670351,142276470947358.72,0.0
104,1.9884285826808397e+30,116863.74894617795,131950583572689.05,0.0
105,1.98842858267505e+30,116863.82171422477,164254970948218.88,0.0
106,1.9884285826783067e+30,116863.81080551619,133996675232201.61,0.0
107,1.9884285826760622e+30,116863.80525253555,159652169374941.16,0.0
108,1.9884285826798928e+30,116863.75212378264,140028924677930.78,0.0
109,1.988428581836661e+30,116891.1273955443,189397250093007.0,0.0
110,1.988428582680834e+30,116863.7491802364,131865562945754.1,0.0
111,1.988428582680824e+30,116863.72586612121,140738469334379.78,0.0
112,1.988428582678339e+30,116863.78050244135,145024693817002.06,0.0
113,1.988428582677258e+30,116863.75060209664,168805774863926.34,0.0
114,1.988428582611088e+30,116865.6229516651,182576137375686.44,0.0
115,1.98842858258935e+30,116866.21919743803,206696648049835.94,0.0
116,1.9884285824739145e+30,116869.87906556782,158931604584026.78,0.0
117,1.9884285826724976e+30,116863.88148531463,168631030867509.06,0.0
118,1.988428582664689e+30,116864.10204285306,167526421075857.53,0.0
119,1.9884285826795125e+30,116863.76661002227,138384665271362.39,0.0
120,1.988428582510311e+30,116868.54631724379,251240171282147.75,0.0
121,1.9884285826753087e+30,116863.82577433107,159701037010452.06,0.0
122,1.9884285826808e+30,116863.74463537289,133954988140040.88,0.0
123,1.9884285826788215e+30,116863.73224194633,158954465381754.53,0.0
124,1.9884285825854974e+30,116866.43965235307,160557842897346.2,0.0
125,1.9884285826777254e+30,116863.81916150675,136683495851913.94,0.0
126,1.988428582433037e+30,116870.97999167003,247060025026241.06,0.0
127,1.9884285826805968e+30,116863.71655915065,146539029047257.75,0.0
128,1.9884285826806584e+30,116863.71540152298,146349861526526.3,0.0
129,1.9884285825553404e+30,116867.25409052365,204273268994857.1,0.0
130,1.9884285826308776e+30,116865.10113738361,156708439412418.62,0.0
131,1.9884285825934096e+30,116866.23254047794,148373235138515.2,0.0
132,1.9884285813450856e+30,116908.58997383926,335130108798005.1,0.0
133,1.9884285826615122e+30,116864.14116007258,189495457414880.4,0.0
134,1.9884285826657932e+30,116864.0562808445,173768773747959.75,0.0
135,1.9884285826769925e+30,116863.81942460332,144083626709975.44,0.0
136,1.988428582672879e+30,116863.89071532544,160465961063068.88,0.0
137,1.988428582594629e+30,116866.1624516792,161773855741172.25,0.0
138,1.9884285826739216e+30,116863.9072361566,142613585267015.56,0.0
139,1.9884285826808386e+30,116863.74895886384,131945989193049.94,0.0
140,1.988428582680825e+30,116863.7452961966,133511350006257.97,0.0
141,1.988428582680819e+30,116863.73797268113,136226200093196.77,0.0
142,1.9884285826451e+30,116864.67484160741,161889720375168.16,0.0
143,1.9884285826608862e+30,116864.23567230463,156737811665374.2,0.0
144,1.9884285798329685e+30,116967.9575971029,614250588503573.5,0.0
145,1.9884285824790824e+30,116869.65270353589,186307426084998.28,0.0
146,1.988428582558913e+30,116867.06592958632,243711974703224.25,0.0
147,1.9884285826748184e+30,116863.80094017588,175719403595853.2,0.0
148,1.9884285826808006e+30,116863.74409518919,134166164458369.69,0.0
149,1.9884285826358862e+30,116864.90495265018,177589543050430.06,0.0
150,1.9884285826808332e+30,116863.75113769573,131156419530235.14,0.0
151,1.9884285826715125e+30,116863.90753390951,169147518138576.25,0.0
152,1.9884285826499343e+30,116864.5590387345,152440743211390.94,0.0
153,1.9884285826771673e+30,116863.8118290154,145179703311965.1,0.0
154,1.9884285825536105e+30,116867.3427682024,187774284419622.53,0.0
155,1.9884285826808436e+30,116863.74990030355,131605521745520.77,0.0
156,1.9884285826545637e+30,116864.39628696248,164613891313235.5,0.0
157,1.988428582680844e+30,116863.7418000368,134576018868624.78,0.0
158,1.988409870698051e+30,108452.17599582183,1.311232337733786e+24,0.0
159,1.9884285826663074e+30,116864.10927468806,146331494378672.06,0.0
160,1.9884285762944953e+30,117135.72721038999,298477005404552.0,0.0
161,1.9884285826734147e+30,116863.83868855466,176078227319483.25,0.0
162,1.9884285826228057e+30,116865.275368412,183137287878636.3,0.0
163,1.988428582680846e+30,116863.74234260201,134409164267183.42,0.0
164,1.988428582673353e+30,116863.86007079753,167706866703596.44,0.0
165,1.988428582642176e+30,116864.75627982378,163174846494322.5,0.0
166,1.988428582671724e+30,116863.9784267556,138643647472635.4,0.0
167,1.9884285826717526e+30,116863.97065738749,141266532019639.66,0.0
168,1.9884285824126045e+30,116871.84211513688,149872357179513.8,0.0
169,1.9884285824813418e+30,116869.55209624086,199893074368910.9,0.0
170,1.9884285826460986e+30,116864.57646289088,191942569048794.7,0.0
171,1.9884285826168157e+30,116865.47083768321,174941908268038.97,0.0
172,1.9884285826804183e+30,116863.75023942406,135552951306890.78,0.0
173,1.9884285826808462e+30,116863.74576853572,133108151729540.56,0.0
174,1.988428582680182e+30,116863.75780459218,135073160848936.67,0.0
175,1.9884285826782968e+30,116863.81759106307,131600549323327.38,0.0
176,1.9884285826802387e+30,116863.74430496049,139516877719539.16,0.0
177,1.988428582677878e+30,116863.79910216983,142674321023186.06,0.0
178,1.9884285826807178e+30,116863.742118884,135679530565803.61,0.0
179,1.988428582521038e+30,116868.35503441884,182676118215362.16,0.0
180,1.988428582680252e+30,116863.76156683326,133010603239641.83,0.0
181,1.988428582657181e+30,116864.24248798957,199400099290000.3,0.0
182,1.988428582679174e+30,116863.72073444759,159816979572375.06,0.0
183,1.9884285819812198e+30,116886.04143830457,217699810997425.0,0.0
184,1.988428582673538e+30,116863.92039430005,141626497638266.2,0.0
185,1.988428582678965e+30,116863.73563445489,156031497934162.44,0.0
186,1.988428582651072e+30,116864.43551126763,190960533586977.62,0.0
187,1.9884285826800124e+30,116863.72860820807,147798315678446.03,0.0
188,1.9884285826791643e+30,116863.7328891001,155007194343023.22,0.0
189,1.9884285826805996e+30,116863.72576819394,142958631736697.3,0.0
190,1.988428582468183e+30,116870.12470068444,133663294827764.75,0.0
191,1.988428582680834e+30,116863.74814393367,132373465371292.06,0.0
192,1.9884285826808479e+30,116863.73717542223,136299201835056.8,0.0
193,1.988428582680834e+30,116863.75104457018,131336987970132.31,0.0
194,1.9884285826805714e+30,116863.74942932947,134374351784309.02,0.0
195,1.9884285823244623e+30,116874.72670548197,133348924615184.5,0.0
196,1.988428582346164e+30,116873.86153934138,199802641188452.6,0.0
197,1.9884285331345987e+30,117483.51932734068,1.5692985606642766e+21,0.0
198,1.9884285826794123e+30,116863.7744414663,136465911852246.12,0.0
199,1.9884285826754596e+30,116863.87075241003,140450989700653.4,0.0
200,1.98842858266136e+30,116864.16498305919,180827061845591.88,0.0
201,1.9884285826565217e+30,116864.3292067975,169295306905871.12,0.0
202,1.988428582680838e+30,116863.75003325012,131645694535667.08,0.0
203,1.9884285826808467e+30,116863.74066833202,134981650866241.33,0.0
204,1.9884285826805016e+30,116863.72356313384,144774571505489.16,0.0
205,1.9884285826755553e+30,116863.8279104482,156105664935019.34,0.0
206,1.988428582680291e+30,116863.73550463705,142330071031787.84,0.0
207,1.9884285826808265e+30,116863.75024946488,131477906576550.55,0.0
208,1.9884285825532212e+30,116867.36256790868,184260642543340.53,0.0
209,1.9884285824983094e+30,116869.10226372677,164730274321020.4,0.0
210,1.9884285826808414e+30,116863.7496970289,131678165811251.14,0.0
211,1.9884285826802874e+30,116863.75448973107,135274780829922.92,0.0
212,1.9884285826804383e+30,116863.71641504223,148200463956342.44,0.0
213,1.9884285826807634e+30,116863.74706871095,133421977732907.42,0.0
214,1.9884285826808273e+30,116863.73545486496,137119727883485.44,0.0
215,1.9884285825200285e+30,116868.40236014927,175656609081446.28,0.0
216,1.988428582558294e+30,116867.09906315382,236305064842684.75,0.0
217,1.988428582680793e+30,116863.75257606726,131146222540350.38,0.0
218,1.9884285826808487e+30,116863.73931813902,135485339753353.73,0.0
219,1.9884285826796755e+30,116863.77663266072,133087008569904.36,0.0
220,1.9884285822261788e+30,116877.85427030094,173475587000968.66,0.0
221,1.988428582678888e+30,116863.74507936685,153112380234141.12,0.0
222,1.9884285826807082e+30,116863.74908748255,133200695188255.97,0.0
223,1.9884285826808312e+30,116863.73523056746,137147943546509.5,0.0
224,1.988428582624213e+30,116865.1707160728,212365916255299.6,0.0
225,1.9884285826806328e+30,116863.71544625332,146597513848790.84,0.0
226,1.9884285826414864e+30,116864.81779708772,146599856754817.75,0.0
227,1.9884285826452666e+30,116864.65885020302,166514420651774.25,0.0
228,1.9884285732766847e+30,116465.60939702106,5.376968882675467e+20,1.0
229,1.988428582673021e+30,116863.84357154089,178672703801304.25,0.0
230,1.9884285826765697e+30,116863.85796059998,133953675250343.25,0.0
231,1.9884285824695153e+30,116870.0680821987,139112990955366.62,0.0
232,1.988428582680777e+30,116863.73179448227,138941442999919.8,0.0
233,1.9884285826772818e+30,116863.83574464974,134992673528910.75,0.0
234,1.9884285826445528e+30,116864.7261856149,147698399027737.16,0.0
235,1.988428582680304e+30,116863.74932919815,137021827391076.33,0.0
236,1.9884285826352678e+30,116864.95619847927,163526043696302.75,0.0
237,1.988428582676531e+30,116863.77370828252,167408823720745.94,0.0
238,1.9884285826664313e+30,116864.08592609024,154108774978873.12,0.0
239,1.9884285826808335e+30,116863.72835356984,139681732310571.67,0.0
240,1.988428582680845e+30,116863.73975603005,135344001362305.39,0.0
241,1.9884285826666275e+30,116864.04862605134,167107253798974.5,0.0
242,1.9884285826807575e+30,116863.73583642894,137603519579863.3,0.0
243,1.9884285826318132e+30,116865.02812846434,175724477821011.38,0.0
244,1.988428582662874e+30,116864.24629889976,131209771052109.6,0.0
245,1.988428582289303e+30,116875.76029093539,179111845437526.2,0.0
246,1.988428582625966e+30,116865.26158142976,150161439344366.12,0.0
247,1.9884285816333857e+30,116898.46288562572,141337699768646.44,0.0
248,1.9884285826729618e+30,116863.86361393023,170778227735134.9,0.0
249,1.988428582680759e+30,116863.73972324908,136177809229143.9,0.0
250,1.9884285824800132e+30,116869.61141856761,191770892232623.38,0.0
251,1.9884285826808242e+30,116863.73927898101,135718252416068.94,0.0
252,1.9884285821406805e+30,116880.76904452292,149325884182207.4,0.0
253,1.9884285826777314e+30,116863.814045507,138516964655777.38,0.0
254,1.9884285825951e+30,116866.13512260404,167277687097465.06,0.0
255,1.9884285826245517e+30,116865.14478070331,220160577789213.9,0.0
256,1.988428582680635e+30,116863.73143166644,140463738865640.25,0.0
257,1.9884285826539425e+30,116864.46838471387,143016234324992.28,0.0
258,1.9884285826808495e+30,116863.73945269735,135437780396343.56,0.0
259,1.9884285826367314e+30,116864.83248924311,199069571418400.0,0.0
260,1.9884285826807752e+30,116863.71729914729,144475924981018.1,0.0
261,1.988428582671669e+30,116863.99334721031,133696370233163.84,0.0
262,1.9884285826528402e+30,116864.42014756153,175361194606153.16,0.0
263,1.988428582680567e+30,116863.7507787902,133943554046502.5,0.0
264,1.9884285826798984e+30,116863.73858875384,145116788099471.5,0.0
265,1.988428582680831e+30,116863.73359679802,137739469841544.94,0.0
266,1.988428582680835e+30,116863.74930296713,131958458805388.98,0.0
267,1.9884285822513505e+30,116876.86078128628,250415198887581.06,0.0
268,1.9884285826803268e+30,116863.70669599957,153144408414065.47,0.0
269,1.9884285824010282e+30,116871.97056662329,262843309203151.8,0.0
270,1.9884285826808372e+30,116863.74846302511,132125975261161.45,0.0
271,1.9884285826808476e+30,116863.74715753144,132604336243482.39,0.0
272,1.9884285824519656e+30,116870.51277240519,183153339594522.06,0.0
273,1.9884285823731355e+30,116873.12268785897,143900585683136.2,0.0
274,1.9884285826808228e+30,116863.74285112524,134422303444802.06,0.0
275,1.9884285826786808e+30,116863.80073519806,133992167638659.75,0.0
276,1.9884285826808372e+30,116863.73983298357,135379688817786.72,0.0
277,1.9884285793646572e+30,116988.53810843013,191224592364512.0,0.0
278,1.9884285826808425e+30,116863.73901502081,135644870673447.78,0.0
279,1.988428582577772e+30,116866.61257060693,186166442454901.78,0.0
280,1.9884285825151554e+30,116868.6266168092,145728689859443.6,0.0
281,1.9884285826807364e+30,116863.74340438038,135030554993771.78,0.0
282,1.988428582638216e+30,116864.90877211359,148128622422014.2,0.0
283,1.9884285826807764e+30,116863.74453866662,134211839530925.1,0.0
284,1.9884285826804887e+30,116863.75684379798,132473389607207.89,0.0
285,1.9884285826501524e+30,116864.53612898765,159105223526575.75,0.0
286,1.9884285826797647e+30,116863.74726760735,143157539966124.97,0.0
287,1.9884285811159416e+30,116917.01260261895,437521299594262.0,0.0
288,1.9884285826807094e+30,116863.75120627081,132429881748323.56,0.0
289,1.988428582639752e+30,116864.7759117621,184876945194938.75,0.0
290,1.9884285825877787e+30,116866.31069160326,186305558694449.16,0.0
291,1.9884285826157866e+30,116865.54005168112,158747544877220.7,0.0
292,1.988428582662107e+30,116864.2121357388,152351329331947.6,0.0
293,1.9884285826791852e+30,116863.78623467726,134347854766457.31,0.0
294,1.9884285826806384e+30,116863.74761363168,134415525713100.83,0.0
295,1.9884285826800687e+30,116863.71158610709,153919687180883.28,0.0
296,1.9884285826807353e+30,116863.72983770186,140072460447583.3,0.0
297,1.9884285826697012e+30,116863.9654398498,165979441885027.5,0.0
298,1.9884285826808467e+30,116863.74046048969,135087741999856.27,0.0
299,1.988428582674217e+30,116863.91798855108,135550358386173.83,0.0
300,1.988428582658426e+30,116864.25053092923,179794344122853.5,0.0
301,1.988428582607628e+30,116865.8413684878,135765714218407.75,0.0
302,1.988428582488594e+30,116869.22192467762,251495372658539.84,0.0
303,1.9884283527189374e+30,117592.40197710859,8.77727112166029e+21,0.0
304,1.9884285826579746e+30,116864.3112656198,159593428685441.0,0.0
305,1.9884285826796212e+30,116863.72533452333,153152942958862.47,0.0
306,1.9884285826808158e+30,116863.73408358685,137718522161267.1,0.0
307,1.988428582680736e+30,116863.7183070156,144466049307192.3,0.0
308,1.9884285826808256e+30,116863.73090791781,138806423819693.02,0.0
309,1.9884285826280704e+30,116865.10456197761,190351116579433.78,0.0
310,1.9884285826753715e+30,116863.7977199564,170645682954269.94,0.0
311,1.9884285826761424e+30,116863.87292571373,132743313959502.16,0.0
312,1.9884285826681066e+30,116864.0407004314,153452757046441.75,0.0
313,1.988428582680811e+30,116863.74076611197,135284981379395.03,0.0
314,1.988428582618135e+30,116865.37923860869,198451189284115.34,0.0
315,1.9884285822512697e+30,116876.86403002548,250113146150817.2,0.0
316,1.9884285826785918e+30,116863.80481195092,133371881300017.11,0.0
317,1.988428582680846e+30,116863.73754643381,136156279268624.38,0.0
318,1.9884285826808476e+30,116863.73971370349,135337685696929.19,0.0
319,1.9884285826474342e+30,116864.63305452894,151618298319946.53,0.0
320,1.9884285826808338e+30,116863.74361324454,134046454938718.23,0.0
321,1.9884285826467283e+30,116864.70083630543,133590565352445.34,0.0
322,1.9884285826807485e+30,116863.72007455652,143655065664756.1,0.0
323,1.988428582680793e+30,116863.74688554733,133212580535565.94,0.0
324,1.9884285826808158e+30,116863.75090536154,131240461370872.1,0.0
325,1.9884285826807375e+30,116863.73658763117,137510783108081.62,0.0
326,1.9884285826789096e+30,116863.80218411755,131220132417637.89,0.0
327,1.9884285826800915e+30,116863.71470820424,152448715846030.9,0.0
328,1.9884285826637837e+30,116864.10084550142,178938858051888.8,0.0
329,1.9884285826807623e+30,116863.74061078194,135805975208102.38,0.0
330,1.988428581375335e+30,116907.38640745591,391714454719911.25,0.0
331,1.9884285826744936e+30,116863.8117757987,174871690910985.88,0.0
332,1.9884285826808397e+30,116863.7481871202,132314039010506.11,0.0
333,1.988428582680843e+30,116863.74299389317,134139414364000.27,0.0
334,1.9884285802055155e+30,116952.94691172174,331500188378549.75,0.0
335,1.9884285826808256e+30,116863.74242878446,134526518970250.16,0.0
336,1.9884285826745026e+30,116863.80887349672,176036755193467.38,0.0
337,1.9884285826742186e+30,116863.91709193349,135855856593251.44,0.0
338,1.9884285823484808e+30,116873.7673597054,208829054956002.94,0.0
339,1.9884285822041514e+30,116878.27914600866,335396495441567.4,0.0
340,1.9884285826316244e+30,116865.0430869257,171686264089237.25,0.0
341,1.988428582680811e+30,116863.75069895473,131315155735867.98,0.0
342,1.9884285826275052e+30,116865.14790397134,178483223240470.0,0.0
343,1.988428582680772e+30,116863.71779552988,144285909811196.9,0.0
344,1.9884285826532763e+30,116864.36884160386,192561668035808.62,0.0
345,1.9884285825906346e+30,116866.14260987607,225226362423463.16,0.0
346,1.9884285826806165e+30,116863.72816124745,141890701014160.84,0.0
347,1.9884285824140265e+30,116871.78364509529,155047261627478.7,0.0
348,1.9884285826766083e+30,116863.83664211982,141492944091165.22,0.0
349,1.9884285826205182e+30,116865.43585142546,144741814719059.06,0.0
350,1.9884285825910098e+30,116866.1198909987,230991242027037.12,0.0
351,1.9884285826742273e+30,116863.91403711837,136900012121745.28,0.0
352,1.9884285826695058e+30,116864.01084363312,149816058187526.6,0.0
353,1.9884285826808374e+30,116863.72953660044,139212959297343.28,0.0
354,1.9884285826808417e+30,116863.73428483953,137391974667211.81,0.0
355,1.9884285826808448e+30,116863.7441155734,133714325177785.11,0.0
356,1.9884285771373302e+30,117091.39179967235,1048574101123900.0,0.0
357,1.988428582680779e+30,116863.71781671785,144218285360429.72,0.0
358,1.988428582676344e+30,116863.76780240904,172056132226136.2,0.0
359,1.988428582627971e+30,116865.11219543195,188216374917588.5,0.0
360,1.9884285826696018e+30,116863.98874136714,157547232303855.44,0.0
361,1.9884285826713878e+30,116863.94231771388,156268613836247.4,0.0
362,1.988428582680827e+30,116863.73768917282,136286116688830.34,0.0
363,1.9884285826808388e+30,116863.7377015638,136148290921424.25,0.0
364,1.9884285826804935e+30,116863.72481336616,144384258869983.6,0.0
365,1.9884285826767698e+30,116863.8487117021,135355115213369.94,0.0
366,1.9884285826782546e+30,116863.76602841802,151552807398595.75,0.0
367,1.9884285826639245e+30,116864.07631845285,188018927941438.56,0.0
368,1.9884285551053746e+30,120924.87508493618,1.4398625189019517e+19,0.0
369,1.988428582680526e+30,116863.72671868208,143326762106493.16,0.0
370,1.9884285826805197e+30,116863.71185206524,149123635355910.88,0.0
371,1.9884285826781786e+30,116863.739237269,163180655523110.6,0.0
372,1.9884285825685512e+30,116866.84209289683,209086541043014.7,0.0
373,1.9884285826808453e+30,116863.75065140225,131357490837975.8,0.0
374,1.9884285826782118e+30,116863.80367636672,137567836603079.03,0.0
375,1.9884285826807555e+30,116863.7365436923,137371215663827.6,0.0
376,1.9884285826349947e+30,116864.97847347366,157693287691111.25,0.0
377,1.9884285823945506e+30,116872.24483486553,227725490025515.7,0.0
378,1.9884285826788533e+30,116863.78418970997,138400101998922.28,0.0
379,1.9884285825689652e+30,116866.819575776,213868816197243.84,0.0
380,1.9884285826808456e+30,116863.74824092723,132216541818162.06,0.0
381,1.988428582680847e+30,116863.74103433349,134846274946982.77,0.0
382,1.988428582677867e+30,116863.80772312701,139531421574870.88,0.0
383,1.9884285826170758e+30,116865.45303970034,179320303774080.78,0.0
384,1.9884285826807685e+30,116863.74554919619,133924365115850.42,0.0
385,1.988428582650656e+30,116864.48179232364,175774833115813.2,0.0
386,1.988428582680846e+30,116863.75010700263,131538898937111.72,0.0
387,1.988428582680842e+30,116863.75039696241,131426997469701.9,0.0
388,1.9884285826804665e+30,116863.71953070642,146688239943191.94,0.0
389,1.9884285826798421e+30,116863.72221885633,152066542477139.88,0.0
390,1.9884285826808467e+30,116863.74924174976,131846208528329.78,0.0
391,1.9884285825245538e+30,116868.1877404621,209662292316279.34,0.0
392,1.988428582679186e+30,116863.78501924581,134785252441204.7,0.0
393,1.9884285826789406e+30,116863.76682264384,144076411790905.0,0.0
394,1.988428582680841e+30,116863.7484963929,132113948351019.6,0.0
395,1.9884285826551965e+30,116864.31855380147,190453081018210.38,0.0
396,1.9884285826808166e+30,116863.72408843208,141469819337001.72,0.0
397,1.9884285826808448e+30,116863.74814139615,132245352592327.94,0.0
398,1.9884285826807392e+30,116863.71897513088,144169442197012.38,0.0
399,1.988428582667391e+30,116864.04435800738,160023529965376.12,0.0
400,1.9884285826797518e+30,116863.77355528867,133472953554491.64,0.0
401,1.9884285825860443e+30,116866.40912060373,166352581545484.72,0.0
402,1.9884285786371446e+30,117020.70610445166,243552164287553.0,0.0
403,1.9884285826808163e+30,116863.74700378171,132950620473534.62,0.0
404,1.9884285826634462e+30,116864.15700937691,159290832505482.75,0.0
405,1.988428582674926e+30,116863.87349839577,144952862569959.62,0.0
406,1.988428582680842e+30,116863.7416477284,134684369658187.2,0.0
407,1.9884285826700823e+30,116864.01029629275,143830997531651.38,0.0
408,1.9884285826484005e+30,116864.53475831976,180943080572941.5,0.0
409,1.9884285826709639e+30,116863.9221700124,169380277626097.38,0.0
410,1.9884285822673268e+30,116876.21541376489,318477582015355.1,0.0
411,1.9884285826663685e+30,116864.09767908984,150159716773389.8,0.0
412,1.9884285826806753e+30,116863.74526857953,134926005262878.44,0.0
413,1.9884285826783745e+30,116863.747483838,157658037855855.72,0.0
414,1.9884285826780213e+30,116863.77891052702,148962763818113.44,0.0
415,1.9884285826637387e+30,116864.10848682914,176172709947357.0,0.0
416,1.9884285822220132e+30,116878.01636330539,163461664709206.03,0.0
417,1.9884285826793794e+30,116863.74536975771,147818540708353.34,0.0
418,1.9884285826808473e+30,116863.75073901388,131300726936387.3,0.0
419,1.9884285826778428e+30,116863.82570107501,133116019278548.06,0.0
420,1.98842858268083e+30,116863.73651073108,136678786228363.3,0.0
421,1.9884285802843406e+30,116949.61210227753,420386340580440.5,0.0
422,1.988428582663634e+30,116864.1262787136,169846291123500.0,0.0
423,1.9884285826180018e+30,116865.38863371595,195926572843155.53,0.0
424,1.9884285804102193e+30,116944.29298357456,619525787493797.5,0.0
425,1.9884285825328902e+30,116868.07879605395,145809213293075.78,0.0
426,1.9884285826808479e+30,116863.74298090248,134132869601121.64,0.0
427,1.98842858258369e+30,116866.5385437126,142995383230067.25,0.0
428,1.988428582675525e+30,116863.841726981,150942630743313.03,0.0
429,1.9884285826808394e+30,116863.73675240287,136524202127204.39,0.0
430,1.9884285826808388e+30,116863.74834663744,132168433351644.89,0.0
431,1.9884285825759154e+30,116866.71348834569,166818752257752.38,0.0
432,1.9884285826808484e+30,116863.74065874216,134989907393300.33,0.0
433,1.9884285826807958e+30,116863.74536926688,133735393383050.64,0.0
434,1.9884285825446888e+30,116867.50039236768,243769461491438.66,0.0
435,1.9884285826808248e+30,116863.72681329442,140333020390384.95,0.0
436,1.9884285826797228e+30,116863.75482283365,140693768069327.66,0.0
437,1.9884285826679084e+30,116864.08138365041,139878559695038.34,0.0
438,1.98842858268085e+30,116863.74152677678,134669181156575.33,0.0
439,1.9884285826719245e+30,116863.92284285951,158123849036146.2,0.0
440,1.988428582637537e+30,116864.96455783218,134520745844365.16,0.0
441,1.988428582542493e+30,116867.61240261339,221021811644005.47,0.0
442,1.9884285826807178e+30,116863.7505030301,132587165714236.34,0.0
443,1.9884285826675327e+30,116864.01568374273,170299841171592.8,0.0
444,1.9884285826775737e+30,116863.83253595074,133270017341009.47,0.0
445,1.9884285826773578e+30,116863.78718687184,152779999802850.12,0.0
446,1.988428581886831e+30,116889.18520998242,284969232596658.75,0.0
447,1.9884285824001804e+30,116872.00673527678,257921395659727.25,0.0
448,1.9884285825100545e+30,116868.5586384732,248926666024191.56,0.0
449,1.9884285826062877e+30,116865.69180260353,216844032608965.62,0.0
450,1.9884285826767752e+30,116863.84575779646,136393480235868.56,0.0
451,1.988428582642195e+30,116864.75452409568,163668160909391.47,0.0
452,1.988428582650769e+30,116864.46935908691,179763720746865.44,0.0
453,1.9884285826798554e+30,116863.76669052466,134977598256068.77,0.0
454,1.988428582069588e+30,116883.09097194289,183543863620741.62,0.0
455,1.9884285826806446e+30,116863.7306781146,140658079280966.55,0.0
456,1.988428582680844e+30,116863.74671434029,132801524309393.81,0.0
457,1.9884285826808515e+30,116863.74859192708,132080370070595.56,0.0
458,1.988428582675912e+30,116863.8787646781,132892632957638.36,0.0
459,1.988428582669267e+30,116864.0640461154,132249938888984.19,0.0
460,1.9884285826808298e+30,116863.73305885273,137959882536176.56,0.0
461,1.9884285826808462e+30,116863.74831849318,132185480795238.06,0.0
462,1.9884285826806534e+30,116863.7173698557,145633544299010.6,0.0
463,1.9884285826752127e+30,116863.86672259924,144540562210004.06,0.0
464,1.988428581917618e+30,116887.9783933365,369138262718431.0,0.0
465,1.9884285826731267e+30,116863.93494180526,140423143666936.12,0.0
466,1.9884285826800445e+30,116863.71085078664,154462866691616.44,0.0
467,1.9884285826652434e+30,116864.15474375649,140365088612775.12,0.0
468,1.9884285826808191e+30,116863.74967792795,131685025141753.77,0.0
469,1.988428582680736e+30,116863.7323207935,139141339521596.98,0.0
470,1.988428582680566e+30,116863.74589618633,135732904546799.5,0.0
471,1.988428582680846e+30,116863.74970001196,131702165633738.12,0.0
472,1.988428582672202e+30,116863.96911720077,137178643448369.4,0.0
473,1.9884285826759583e+30,116863.85758469428,140286678637090.22,0.0
474,1.9884285826808405e+30,116863.74728066669,132629488547731.64,0.0
475,1.9884285826750177e+30,116863.83576001196,158867857609205.78,0.0
476,1.9884285826808338e+30,116863.73027948874,138952713910696.45,0.0
477,1.9884285826728092e+30,116863.91200378397,152654055221376.5,0.0
478,1.9884285826807648e+30,116863.72798642985,140497378368520.64,0.0
479,1.9884285826751255e+30,116863.90313320025,131855286740733.34,0.0
480,1.988428582462917e+30,116870.03227763907,248774432937542.0,0.0
481,1.9884285825498038e+30,116867.53287552958,156436324809779.3,0.0
482,1.988428582525399e+30,116868.14684877281,216803949663227.9,0.0
483,1.9884285826805225e+30,116863.75504074909,132806519126198.66,0.0
484,1.9884285826797904e+30,116863.76641285623,135721396651210.36,0.0
485,1.9884285826498614e+30,116864.56667486427,150266302671062.94,0.0
486,1.9884285826804054e+30,116863.75801717263,132825280543673.27,0.0
487,1.9884285826699976e+30,116864.02986694417,137331573780094.53,0.0
488,1.9884285826514256e+30,116864.39493587082,205047155912349.88,0.0
489,1.9884285826768594e+30,116863.79623788045,154547488432525.38,0.0
490,1.9884285826797053e+30,116863.71671001583,155708716838042.47,0.0
491,1.988428582664373e+30,116864.15623438108,149202846425311.5,0.0
492,1.9884285823865587e+30,116872.57724958588,191370669472899.0,0.0
493,1.9884285826808445e+30,116863.74956541351,131732339708446.22,0.0
494,1.988428582680722e+30,116863.72515474315,141993751665936.38,0.0
495,1.9884285818385953e+30,116891.05297200807,192349494135019.88,0.0
496,1.9884285826806063e+30,116863.75712877455,131241172984829.52,0.0
497,1.9884285826805523e+30,116863.73947275846,138240591553638.16,0.0
498,1.9884285819553486e+30,116887.03665372227,170955164417102.2,0.0
499,1.9884285825847858e+30,116866.47888006055,153374794614157.38,0.0
500,1.988428582599131e+30,116865.89014364478,224267978331226.47,0.0
501,1.9884285826506932e+30,116864.47779735048,177049327435900.44,0.0
502,1.988428582623927e+30,116865.19237192342,206028601414099.1,0.0
503,1.9884285826796682e+30,116863.71280298947,157672325083515.22,0.0
504,1.9884285826807578e+30,116863.7246056844,141833105332115.72,0.0
505,1.9884285826808453e+30,116863.74936242965,131832846432124.5,0.0
506,1.9884285826805788e+30,116863.74246721702,136874269713884.5,0.0
507,1.9884285826353927e+30,116864.94594469028,166267467593688.78,0.0
508,1.9884285824616745e+30,116870.08786059897,240148872464208.12,0.0
509,1.9884285826808107e+30,116863.75033739117,131446060961949.03,0.0
510,1.988428582677331e+30,116863.80405473377,146445720794678.2,0.0
511,1.988428582680768e+30,116863.74364818381,134646991681833.94,0.0
512,1.9884285826805517e+30,116863.71511777202,147549846045559.16,0.0
513,1.98842858268082e+30,116863.74027972734,135388389384577.75,0.0
514,1.9884285826579907e+30,116864.3092039975,160251254662611.3,0.0
515,1.988428582371776e+30,116873.1771343293,139870033243859.78,0.0
516,1.9884285826806868e+30,116863.75197204464,132349043483183.7,0.0
517,1.9884285826804408e+30,116863.74832955605,136045979771407.6,0.0
518,1.9884285826793746e+30,116863.75449920507,144357289127155.3,0.0
519,1.9884285826808448e+30,116863.74443436567,133597231068527.31,0.0
520,1.9884285825803334e+30,116866.46905687328,217101285543652.44,0.0
521,1.9884285826807564e+30,116863.7192653602,143895816916316.56,0.0
522,1.9884285826808433e+30,116863.74648133245,132847657458698.55,0.0
523,1.9884285826776981e+30,116863.74251788699,167207408260657.03,0.0
524,1.9884285826803541e+30,116863.71046451459,151376055942269.12,0.0
525,1.9884285826026186e+30,116865.92348135037,161884557000326.38,0.0
526,1.9884285826797813e+30,116863.7098496149,157659311475139.0,0.0
527,1.988428582674708e+30,116863.8467544679,157857441279921.03,0.0
528,1.9884285826803494e+30,116863.72953261981,144014216860258.8,0.0
529,1.9884285826752656e+30,116863.84423498702,152747682347196.7,0.0
530,1.9884285820486263e+30,116883.89412929871,146703281837729.94,0.0
531,1.9884285825858405e+30,116866.4205169951,164168398018073.1,0.0
532,1.9884285826808422e+30,116863.73823852518,135886558123858.34,0.0
533,1.9884285826689626e+30,116863.99623906873,161754298349565.8,0.0
534,1.9884285826808453e+30,116863.74290641678,134157457656142.1,0.0
535,1.9884285826737986e+30,116863.82937034508,175546678345024.66,0.0
536,1.988428582668448e+30,116863.96687440397,180288260512123.88,0.0
537,1.9884285826804152e+30,116863.71381702262,149433377919952.5,0.0
538,1.988428582193678e+30,116878.69918602318,292111211983298.0,0.0
539,1.9884285818814598e+30,116889.39447407302,272566422747182.75,0.0
540,1.9884285826808417e+30,116863.75026116827,131562199006368.39,0.0
541,1.9884285826808307e+30,116863.74987930157,131612040235521.0,0.0
542,1.9884285826807274e+30,116863.71684584954,145114295577718.88,0.0
543,1.988428582680843e+30,116863.7423334629,134400460242200.94,0.0
544,1.9884285826804704e+30,116863.74051458389,138647751977552.36,0.0
545,1.9884285826649622e+30,116864.0530172822,185380262414828.56,0.0
546,1.988428582680849e+30,116863.7407379603,134957053271177.8,0.0
547,1.9884285826808158e+30,116863.7388956424,135938276211463.1,0.0
548,1.9884285825337065e+30,116868.04048375024,150943859539545.5,0.0
549,1.9884285821508778e+30,116880.37693615038,169319321523974.0,0.0
550,1.9884285826808253e+30,116863.74134680761,134942181068160.31,0.0
551,1.9884285826808448e+30,116863.74229669302,134381441433173.94,0.0
552,1.9884285826808467e+30,116863.74670725856,132781482910479.98,0.0
553,1.988428582680465e+30,116863.7255174405,144393909010836.03,0.0
554,1.9884285819902783e+30,116885.6906705875,237246451134596.12,0.0
555,1.98842858268062e+30,116863.7363197062,138775874920478.44,0.0
556,1.9884285826092206e+30,116865.74296108422,155410524093788.3,0.0
557,1.9884285826806635e+30,116863.7506650199,133060305106220.53,0.0
558,1.9884285826278512e+30,116865.12149279958,185642213289443.0,0.0
559,1.9884285826807707e+30,116863.7508987131,131963136834436.58,0.0
560,1.9884285826803313e+30,116863.74892451994,136887692441423.19,0.0
561,1.988428582680695e+30,116863.71899012208,144615254321416.44,0.0
562,1.9884285826570002e+30,116864.26682508072,190594835880093.2,0.0
563,1.9884285824842497e+30,116869.42116794302,219008378988496.0,0.0
564,1.9884285826790504e+30,116863.71570732103,163227203063347.44,0.0
565,1.988428582680844e+30,116863.74411821726,133712542567336.14,0.0
566,1.988428582680068e+30,116863.71061061084,154304830452471.34,0.0
567,1.9884285826597794e+30,116864.23144132065,171462633271549.62,0.0
568,1.9884285826794768e+30,116863.75114497091,144611604712804.6,0.0
569,1.9884285826490378e+30,116864.4663454942,203712203382463.75,0.0
570,1.9884285826387215e+30,116864.86618891565,159223378831058.7,0.0
571,1.9884285826696542e+30,116863.97636630734,161989195854190.7,0.0
572,1.9884285825175406e+30,116868.51769260094,159602925168420.03,0.0
573,1.988428582680846e+30,116863.74164419826,134643585088412.33,0.0
574,1.988428582680495e+30,116863.71229328876,149208725143516.9,0.0
575,1.9884285826808003e+30,116863.75045215776,131404500271269.64,0.0
576,1.9884285826521974e+30,116864.49264074069,153008136534923.62,0.0
577,1.9884285825937114e+30,116866.21537590261,151562012596550.34,0.0
578,1.9884285826799018e+30,116863.72959191218,148559789673032.0,0.0
579,1.988428582581044e+30,116866.42832462073,226666445445155.4,0.0
580,1.988428582680824e+30,116863.73939423876,135650898743759.6,0.0
581,1.9884285826806458e+30,116863.71701348266,145856177112966.66,0.0
582,1.988428582678645e+30,116863.75112917286,153293221808131.75,0.0
583,1.988428582680132e+30,116863.7210271898,149527563395520.8,0.0
584,1.9884285816474015e+30,116897.92392909976,155177288137884.56,0.0
585,1.9884285824752782e+30,116869.8198639119,165687906748155.3,0.0
586,1.9884285826798e+30,116863.74080923478,145247663067997.88,0.0
587,1.9884285826749864e+30,116863.84871615452,153999248022990.44,0.0
588,1.9884285826803302e+30,116863.75566260784,134416547690447.08,0.0
589,1.988428582680354e+30,116863.76245833302,131691478812096.88,0.0
590,1.9884285826807724e+30,116863.7302903766,139564737393026.95,0.0
591,1.9884285822770655e+30,116876.24073568525,146719890130015.44,0.0
592,1.9884285826801197e+30,116863.76207796633,134109533265415.92,0.0
593,1.988428582680845e+30,116863.74753426533,132496287013149.28,0.0
594,1.9884285826754143e+30,116863.89003073127,133744959573734.7,0.0
595,1.9884285826349562e+30,116864.98151675111,156909313364661.28,0.0
596,1.9884285826776258e+30,116863.7964807552,146291820687470.75,0.0
597,1.98842858252698e+30,116868.0698180607,230876754984734.25,0.0
598,1.9884285826082397e+30,116865.80395894028,142968364815584.3,0.0
599,1.9884285826805557e+30,116863.73268909322,140777675066979.94,0.0
600,1.9884285826806446e+30,116863.7296039068,141062610059604.62,0.0
601,1.9884285826705552e+30,116864.02616164397,132996243452473.81,0.0
602,1.9884285826808428e+30,116863.74001790778,135260347903316.55,0.0
603,1.9884285826806215e+30,116863.75298745056,132592562495094.9,0.0
604,1.9884285826621813e+30,116864.20100392381,155962049326402.8,0.0
605,1.9884285826791283e+30,116863.78152309306,136650572146070.34,0.0
606,1.9884285825939334e+30,116866.20266325987,153962177448415.2,0.0
607,1.9884285826590465e+30,116864.33182115496,139648898631410.95,0.0
608,1.9884285826527094e+30,116864.43528491908,170507988006360.5,0.0
609,1.9884285826805453e+30,116863.75732485719,131763659605968.94,0.0
610,1.9884285826791914e+30,116863.7770860556,137661534172897.72,0.0
611,1.9884285826806545e+30,116863.71748457129,145589469244464.7,0.0
612,1.9884285822774973e+30,116876.22392997859,147744201598375.6,0.0
613,1.98842858268081e+30,116863.74437578865,133990355414411.12,0.0
614,1.9884285826793386e+30,116863.727454512,155312830200338.78,0.0
615,1.9884285807801079e+30,116929.85020370605,474579688600612.5,0.0
616,1.9884285826578812e+30,116864.323420889,155754056173916.06,0.0
617,1.9884285826313865e+30,116865.0616979996,166765308019077.56,0.0
618,1.9884285826806123e+30,116863.71020283338,148832146802898.6,0.0
619,1.9884285826806835e+30,116863.73348512177,139225681059169.97,0.0
620,1.9884285825489264e+30,116867.57579052502,150064825102461.12,0.0
621,1.9884285826787982e+30,116863.76159566984,147575601925494.94,0.0
622,1.9884285825332244e+30,116868.06316426252,147884023726189.1,0.0
623,1.988428582680846e+30,116863.75073433285,131306226833264.36,0.0
624,1.9884285825649162e+30,116867.03478513434,171920369278426.3,0.0
625,1.988428582680783e+30,116863.73610023687,137282676060506.8,0.0
626,1.988428582668472e+30,116863.96128400521,182439046537350.38,0.0
627,1.9884285823511596e+30,116873.65788220087,219841268929400.88,0.0
628,1.9884285826743334e+30,116863.87470861891,150803949250837.53,0.0
629,1.9884285826714897e+30,116863.91376831992,166790104715684.8,0.0
630,1.9884285826808355e+30,116863.74204242676,134576266149192.58,0.0
631,1.9884285826800076e+30,116863.74531181398,141456320007564.2,0.0
632,1.9884285826806103e+30,116863.72498402938,143147397271398.8,0.0
633,1.988428582658322e+30,116864.26483351973,174882449026658.1,0.0
634,1.9884285826167706e+30,116865.47396512957,174181749682003.44,0.0
635,1.9884285826808453e+30,116863.73956381017,135424751725391.92,0.0
636,1.9884285826808414e+30,116863.74759206454,132442840777473.3,0.0
637,1.988428582593445e+30,116866.230594985,148731688002124.22,0.0
638,1.9884285826670598e+30,116864.10918526401,138348206612486.1,0.0
639,1.9884285826805334e+30,116863.72914722854,142329247445456.03,0.0
640,1.9884285826785068e+30,116863.80272101337,134991429426747.97,0.0
641,1.9884285826806604e+30,116863.71128445791,147941755795293.2,0.0
642,1.9884285826749453e+30,116863.86549279734,147837183331576.9,0.0
643,1.9884285825814303e+30,116866.40592974516,232080855417699.7,0.0
644,1.9884285826799857e+30,116863.73144650906,146976226649705.88,0.0
645,1.9884285826708487e+30,116863.95265739813,158111761844131.66,0.0
646,1.988428582680847e+30,116863.74557596858,133177700142513.97,0.0
647,1.9884285824850544e+30,116869.38454257927,224662288419702.06,0.0
648,1.9884285826491957e+30,116864.63369580144,132162467484120.16,0.0
649,1.988428582643633e+30,116864.61848205316,205493191459698.62,0.0
650,1.9884285826807344e+30,116863.72387472479,142344373336799.94,0.0
651,1.9884285826808417e+30,116863.74595982721,133037938879945.64,0.0
652,1.9884285826336147e+30,116865.08669375398,131655072105479.28,0.0
653,1.9884285826528253e+30,116864.42200129008,174761511059036.88,0.0
654,1.988428582680713e+30,116863.71851797975,144596329102759.72,0.0
655,1.988428582371391e+30,116873.1925517991,138749667030572.9,0.0
656,1.988428582624006e+30,116865.18629567866,207791176060926.66,0.0
657,1.988428582599245e+30,116865.88290319167,226177353820976.03,0.0
658,1.9884285826719074e+30,116863.9275859784,156396043672884.72,0.0
659,1.9884285826750666e+30,116863.8147828722,166955494649330.78,0.0
660,1.9884285826781702e+30,116863.74603688477,160475391920189.88,0.0
661,1.9884285826808448e+30,116863.74826865281,132197052230442.36,0.0
662,1.9884285825935005e+30,116866.22738234962,149325268189730.28,0.0
663,1.9884285826777696e+30,116863.78640781947,148685060978506.2,0.0
664,1.9884285826795024e+30,116863.78091750761,133187383144335.38,0.0
665,1.988428582673192e+30,116863.91321017928,148022044954936.28,0.0
666,1.9884285825394734e+30,116867.76295432607,193512135668293.3,0.0
667,1.98842858253329e+30,116868.06002265315,148304350069353.8,0.0
668,1.9884285826727647e+30,116863.9261580789,147598800405897.34,0.0
669,1.988428582667065e+30,116864.10827985813,138636368189349.97,0.0
670,1.9884285826805543e+30,116863.73524147779,139819826849927.83,0.0
671,1.9884285826808493e+30,116863.74395754084,133773411901535.45,0.0
672,1.98842858266749e+30,116864.02448568541,167099608364052.8,0.0
673,1.9884285826808293e+30,116863.75053604167,131572236505360.25,0.0
674,1.9884285826808383e+30,116863.7355177688,136935437491284.38,0.0
675,1.9884285826808245e+30,116863.75124376998,131339713848934.73,0.0
676,1.9884285826647962e+30,116864.08305777451,174294040337619.47,0.0
677,1.988428582509952e+30,116868.56353585562,248012667723118.97,0.0
678,1.9884285826764647e+30,116863.81074900003,153044048425005.0,0.0
679,1.988428582655135e+30,116864.32633665996,187742496307867.3,0.0
680,1.9884285766472645e+30,117116.93054795884,502697229186889.0,0.0
681,1.988428582672083e+30,116863.87553515301,176040133881215.4,0.0
682,1.9884285826781448e+30,116863.76891932318,151575151432208.7,0.0
683,1.9884285826804586e+30,116863.75353719707,133943755697549.56,0.0
684,1.9884285826805548e+30,116863.73087573433,141460577672019.38,0.0
685,1.9884285825472953e+30,116867.65462584617,138983398597750.56,0.0
686,1.9884285826808456e+30,116863.75057543519,131385750275403.77,0.0
687,1.988428582680845e+30,116863.74991985687,131619070372459.84,0.0
688,1.9884285826020729e+30,116865.95635463383,155145129278350.38,0.0
689,1.9884285826808377e+30,116863.73168240722,138416867853324.52,0.0
690,1.9884285826788252e+30,116863.73076454065,159540898189936.34,0.0
691,1.9884285804842073e+30,116942.03706268604,166256280470819.5,0.0
692,1.9884285826804847e+30,116863.71422964694,148547239749868.94,0.0
693,1.9884285826806863e+30,116863.72940597094,140756834763615.53,0.0
694,1.9884285826807096e+30,116859.98265840171,7920861551988320.0,1.0
695,1.9884285825061614e+30,116868.7428506276,216640605650400.9,0.0
696,1.9884285826808048e+30,116863.74256844746,134681656672053.05,0.0
697,1.9884285826795446e+30,116863.71212666991,159297208133447.62,0.0
698,1.9884285826777741e+30,116863.7832814689,149863436034480.44,0.0
699,1.988428582647632e+30,116864.61346586392,157154828832506.0,0.0
700,1.9884285821466894e+30,116880.5382780026,160772770351244.8,0.0
701,1.9884285826575614e+30,116864.3644144127,143292777466364.12,0.0
702,1.9884285826808453e+30,116863.74768103706,132410312505129.77,0.0
703,1.9884285825768935e+30,116866.66067633216,176707847738558.94,0.0
704,1.9884285826808172e+30,116863.74903926367,132205953228462.2,0.0
705,1.9884285826808312e+30,116863.74981009192,131779242061368.73,0.0
706,1.9884285825186504e+30,116868.46642981705,166558815748439.56,0.0
707,1.988428582679437e+30,116863.73257615525,152225081762867.12,0.0
708,1.988428582659745e+30,116864.2364599855,169760963133721.16,0.0
709,1.9884285826312514e+30,116865.07228384356,164016819568712.2,0.0
710,1.9884285824979752e+30,116869.11724460716,162848493684468.4,0.0
711,1.9884285826115943e+30,116865.58938525847,190850065588137.88,0.0
712,1.9884285826807274e+30,116863.7318242084,139412031125755.1,0.0
713,1.9884285826649192e+30,116864.0608112594,182459093459345.22,0.0
714,1.9884285826808053e+30,116862.16976923178,1636397158591257.2,1.0
715,1.9884285826550678e+30,116864.33484974211,184809513868200.38,0.0
716,1.9884285826638237e+30,116864.09394354884,181462868338365.62,0.0
717,1.9884285826808383e+30,116863.74881583972,131998083852293.28,0.0
718,1.9884285826807507e+30,116863.74649079861,133737649501395.16,0.0
719,1.9884285826043897e+30,116865.8139064348,186187396090019.03,0.0
720,1.988428582515795e+30,116868.59753639455,149315949961006.9,0.0
721,1.9884285826414447e+30,116864.82145005449,145658247587620.88,0.0
722,1.9884285826720534e+30,116863.8849128245,172389103773514.03,0.0
723,1.988428582669047e+30,116863.97697299173,168774787985295.75,0.0
724,1.9884285825172335e+30,116868.53180201037,157737354449009.12,0.0
725,1.9884285826551067e+30,116864.32991811678,186504535959829.38,0.0
726,1.988428582365102e+30,116873.07908652328,288547766008391.56,0.0
727,1.9884285826793645e+30,116863.77214243573,137809201628898.16,0.0
728,1.9884285826808436e+30,116863.74296017757,134173357207255.3,0.0
729,1.9884285826651877e+30,116864.16461408009,137281131587273.12,0.0
730,1.9884285826808338e+30,116863.74662855259,132937672820380.22,0.0
731,1.9884285826807688e+30,116863.74106754817,135583080726934.62,0.0
732,1.9884285826807848e+30,116863.74908223003,132491825529719.19,0.0
733,1.9884285826759423e+30,116863.86498347059,137675019652572.17,0.0
734,1.9884285826808225e+30,116863.75075777796,131549702708638.08,0.0
735,1.988428582642278e+30,116864.747080506,165772341082102.44,0.0
736,1.9884285826680714e+30,116864.04798975356,150958318902154.25,0.0
737,1.9884285822338594e+30,116877.55385316546,193751809079043.56,0.0
738,1.9884285826796313e+30,116863.77981423015,132328802320198.75,0.0
739,1.988428582680833e+30,116863.75075078923,131296398414273.84,0.0
740,1.9884285826801143e+30,116863.70672509377,155365201878893.25,0.0
741,1.9884285826807688e+30,116863.74478705294,134203400848226.69,0.0
742,1.9884285824103476e+30,116871.9345010889,142046212127947.9,0.0
743,1.9884285826649974e+30,116864.04684709344,187715301527001.56,0.0
744,1.9884285826633635e+30,116864.17048928603,154807211465042.88,0.0
745,1.9884285826803454e+30,116863.74667060583,137585534569170.44,0.0
746,1.9884285826807992e+30,116863.72797015027,140181890170880.1,0.0
747,1.9884285817957549e+30,116892.69391119301,137254972744624.88,0.0
748,1.9884285826808352e+30,116863.73324867466,137839908644941.88,0.0
749,1.988428582637425e+30,116864.97352878637,132427613068997.12,0.0
750,1.988428582680718e+30,116863.74202550178,135713947235884.69,0.0
751,1.9884285826794458e+30,116863.71934049284,157426824253075.8,0.0
752,1.9884285821363688e+30,116880.9340688288,141666370876157.4,0.0
753,1.988428582662781e+30,116864.10537177658,189470651174971.94,0.0
754,1.988428582609315e+30,116865.73699595912,156675115003887.03,0.0
755,1.9884285826573157e+30,116828.33094802618,1.3340272899410056e+18,1.0
756,1.9884285826782518e+30,116863.76848650441,150614173263919.62,0.0
757,1.9884285826760284e+30,116863.82277917021,152990729234296.1,0.0
758,1.988428582680843e+30,116863.74057335766,135073931712781.67,0.0
759,1.9884285826808172e+30,116863.74746660661,132774088236195.44,0.0
760,1.9884285826761233e+30,116863.77346616742,172192191559997.22,0.0
761,1.988428582672074e+30,116863.87814966733,175017227156945.97,0.0
762,1.9884285826808293e+30,116863.73917728112,135700712180086.77,0.0
763,1.9884285826804363e+30,116863.71179844734,149994987529684.78,0.0
764,1.9884285826318174e+30,116865.02777498744,175820806268803.2,0.0
765,1.988428582676019e+30,116863.82788342013,151084195095001.97,0.0
766,1.988428582189166e+30,116878.87888581985,275391964209523.44,0.0
767,1.988428582644241e+30,116864.75483965437,140203283299485.53,0.0
768,1.9884285826808479e+30,116863.74528998077,133288389894006.86,0.0
769,1.9884285826702123e+30,116863.97895415155,154658421975564.97,0.0
770,1.9884285826807215e+30,116863.74141415239,135892130468931.6,0.0
771,1.9884285826796386e+30,116863.77104433767,135492900314981.72,0.0
772,1.988428582672618e+30,116863.9696917204,132733839979723.6,0.0
773,1.9884285826644874e+30,116864.13707662969,155514370688568.25,0.0
774,1.9884285826808493e+30,116863.7488488571,131988061047656.03,0.0
775,1.9884285826770775e+30,116863.76568967976,164563313528844.38,0.0
776,1.9884285825612187e+30,116867.22293721385,141509086282993.3,0.0
777,1.988428582679332e+30,116863.73736396621,151445161632101.8,0.0
778,1.9884285826158739e+30,116865.53432049722,160039298208245.38,0.0
779,1.9884285826798785e+30,116863.71507313737,154539645502392.06,0.0
780,1.9884285826806742e+30,116863.74013476085,136818589986457.94,0.0
781,1.9884285826808394e+30,116863.74835749899,132164428105230.78,0.0
782,1.988428582680847e+30,116863.74650649169,132879992227716.72,0.0
783,1.988428582670634e+30,116864.00696845018,139279462271862.16,0.0
784,1.9884285826797774e+30,116863.71875168874,154132131930673.34,0.0
785,1.9884285826783472e+30,116863.77259753823,147990201615133.1,0.0
786,1.9884285826808338e+30,116863.7385294563,135888737798706.72,0.0
787,1.988428582680447e+30,116863.72333207673,145430308034974.25,0.0
788,1.988428582617349e+30,116865.43420211488,184052594280216.25,0.0
789,1.9884285826747897e+30,116863.81303764936,170884503609154.94,0.0
790,1.988428582680209e+30,116863.723809104,147641742739874.66,0.0
791,1.988428582678995e+30,116863.78502978405,136671251564707.52,0.0
792,1.9884285826635385e+30,116864.14183893439,164443214344823.94,0.0
793,1.988428582678631e+30,116863.76611652154,147559866583906.25,0.0
794,1.9884285826403962e+30,116864.7169978316,203260701010206.94,0.0
795,1.9884285826805948e+30,116863.72400769303,143685180895235.5,0.0
796,1.9884285826808048e+30,116863.72884843803,139771609482466.25,0.0
797,1.9884285826803423e+30,116863.7631329165,131576286582279.17,0.0
798,1.9884285826515252e+30,116864.56456529486,132979915883480.58,0.0
799,1.9884285825116366e+30,116868.48243651148,263561242213958.88,0.0
800,1.9884285826808467e+30,116863.74608475194,133004996128244.28,0.0
801,1.9884285826035118e+30,116865.86868406327,173676163595094.75,0.0
802,1.988428582680776e+30,116863.74413432514,134382410038882.77,0.0
803,1.9884285826739804e+30,116863.8864213774,150025182997984.72,0.0
804,1.9884285824941303e+30,116869.28762287262,142853031147212.34,0.0
805,1.9884285826808448e+30,116863.73881850322,135672199529731.31,0.0
806,1.9884285826808479e+30,116863.74492718234,133421177210570.48,0.0
807,1.9884285824253502e+30,116871.31030448023,204059546991398.9,0.0
808,1.9884285825811125e+30,116866.42430012525,227631233663775.62,0.0
809,1.9884285826808453e+30,116863.75048575489,131393392878877.22,0.0
810,1.9884285826769573e+30,116863.83983937906,136743430675462.6,0.0
811,1.9884285826806914e+30,116863.72694281014,141590109046628.53,0.0
812,1.9884285826697144e+30,116863.96218598729,167180161447030.06,0.0
813,1.988428582680836e+30,116863.73305257325,137906841848287.62,0.0
814,1.9884285823066933e+30,116875.06440573478,239554061835729.88,0.0
815,1.988428582627773e+30,116865.12744715944,184008486422235.34,0.0
816,1.9884285826805225e+30,116863.74506321533,136457635673612.1,0.0
817,1.9884285826636835e+30,116864.11776753118,172852824664469.38,0.0
818,1.988428582676703e+30,116863.78197295818,162023956707519.3,0.0
819,1.9884285826359112e+30,116864.90280609517,178198633507430.5,0.0
820,1.9884285826270138e+30,116865.1848210917,168849790938963.66,0.0
821,1.988428578994443e+30,117004.23992667286,511599051625384.5,0.0
822,1.9884285826783796e+30,116863.7429872582,159428903245369.3,0.0
823,1.9884285824864418e+30,116869.32117129501,234776600791160.72,0.0
824,1.9884285826574122e+30,116864.38310286343,137856672065346.81,0.0
825,1.9884285825565978e+30,116867.18869629601,217272481129073.47,0.0
826,1.988428582680818e+30,116863.21198309454,421209851846272.25,1.0
827,1.988428582662692e+30,116864.12019323299,183979228978091.75,0.0
828,1.988428582680048e+30,116863.76794927848,132645089543869.53,0.0
829,1.9884285826808287e+30,116863.73900702035,135759410085012.98,0.0
830,1.9884285826808403e+30,116863.73232193074,138139382703802.62,0.0
831,1.9884285826797343e+30,116863.73075505436,149824435353776.44,0.0
832,1.988428582675195e+30,116863.87397078058,141956232719944.3,0.0
833,1.9884285826808186e+30,116863.72751966433,140139727039326.6,0.0
834,1.9884285826616983e+30,116864.27238939445,133815765811744.9,0.0
835,1.988428582680821e+30,116863.73706526418,136576064129180.39,0.0
836,1.988428582680818e+30,116863.74364360163,134159460558330.27,0.0
837,1.9884285826354248e+30,116864.94338428692,166957614807156.28,0.0
838,1.9884285826808346e+30,116863.74990286895,131603485964854.75,0.0
839,1.9884285826770688e+30,116863.77080006566,162542383015792.4,0.0
840,1.988428582673791e+30,116863.83181173456,174575435379691.56,0.0
841,1.9884285826797422e+30,116863.71843217146,154634888649737.2,0.0
842,1.9884285823283086e+30,116874.57543392472,143081964862900.44,0.0
843,1.9884285826808166e+30,116863.74302826235,134408515322402.9,0.0
844,1.9884285824238964e+30,116871.37191746636,196898259928612.12,0.0
845,1.9884285826748592e+30,116863.9001424534,135611871590881.1,0.0
846,1.9884285826682513e+30,116864.00986436382,164310742837212.53,0.0
847,1.9884285826797304e+30,116863.74097952303,145902958058020.34,0.0
848,1.9884285826807685e+30,116863.73504895694,137799464613633.06,0.0
849,1.988428582670616e+30,116864.01161249433,137741568915437.86,0.0
850,1.988428582679981e+30,116863.74190375561,143000909417187.97,0.0
851,1.9884285826808248e+30,116863.73982436661,135514123269453.55,0.0
852,1.9884285822735552e+30,116876.37734689207,138660939218666.28,0.0
853,1.988428582675421e+30,116863.88724504433,134701143945455.25,0.0
854,1.9884285826783287e+30,116863.79048348712,141332968225424.0,0.0
855,1.9884285826719409e+30,116863.91800603663,159898534780044.9,0.0
856,1.9884285826800952e+30,116863.76607298154,132874473259887.06,0.0
857,1.988428582680751e+30,116863.72252731607,142703522524949.28,0.0
858,1.9884285826572724e+30,116864.40010901602,133040566001324.56,0.0
859,1.9884285826643453e+30,116864.1607705903,147734651364248.66,0.0
860,1.9884285826806336e+30,116863.75038586474,133447036090123.23,0.0
861,1.988428582680845e+30,116863.74994093711,131639091904069.67,0.0
862,1.9884285826669298e+30,116863.9876685854,189910817297662.88,0.0
863,1.9884285826462433e+30,116864.5617172101,196784853305842.88,0.0
864,1.9884285826733795e+30,116863.85118055162,171155700929605.6,0.0
865,1.9884285826806443e+30,116863.75481313675,131710966800376.62,0.0
866,1.9884285826092868e+30,116865.73874981911,156302400322427.06,0.0
867,1.9884285826803477e+30,116863.74173095926,139420309129822.52,0.0
868,1.9884285826625706e+30,116864.13967356001,176930251842460.5,0.0
869,1.9884285826808352e+30,116863.75087091832,131252928243681.81,0.0
870,1.988428582680168e+30,116863.7339981739,144131360594933.56,0.0
871,1.9884285826742895e+30,116863.89113524795,144891941176970.88,0.0
872,1.988428582675259e+30,116863.84699116222,151726314340555.66,0.0
873,1.9884285826139868e+30,116865.65672353425,134284719489871.8,0.0
874,1.9884285826808425e+30,116863.74763300383,132428396556853.95,0.0
875,1.9884285826784328e+30,116863.78398831167,142734829947496.53,0.0
876,1.9884285796099412e+30,116977.71892017052,348785020224200.0,0.0
877,1.988428582500931e+30,116868.98400478342,180335413665036.3,0.0
878,1.9884285826808526e+30,116863.75038442168,131429780760833.6,0.0
879,1.9884285826628337e+30,116864.09657015273,192784640573827.38,0.0
880,1.988428582680831e+30,116863.74440795941,133766478051183.97,0.0
881,1.9884285818802432e+30,116889.44183301342,269839541160834.12,0.0
882,1.9884285824280616e+30,116871.194676295,218200497502367.25,0.0
883,1.9884285826393877e+30,116864.80833614198,175320657686726.06,0.0
884,1.9884285826050894e+30,116865.7694529274,196894628346871.62,0.0
885,1.988428582680823e+30,116863.74219098999,134655144884656.3,0.0
886,1.9884285826807406e+30,116863.7359347808,137753518163946.19,0.0
887,1.988428582677194e+30,116863.79426924072,151729713368066.25,0.0
888,1.9884285823235111e+30,116874.37393664393,320117958187238.9,0.0
889,1.9884285826808464e+30,116863.74899525024,131933599456573.22,0.0
890,1.9884285826636714e+30,116864.11983030134,172120824642909.38,0.0
891,1.9884285826629905e+30,116864.22884620226,136403047469752.75,0.0
892,1.9884285826808346e+30,116863.74365197559,134017449474179.06,0.0
893,1.9884285826425985e+30,116864.71751464187,174335504464757.16,0.0
894,1.9884285826803395e+30,116863.71504192577,149728366880327.16,0.0
895,1.9884285826807567e+30,116863.72873343482,140275240653032.06,0.0
896,1.988428582629077e+30,116865.02514503934,213726406853302.03,0.0
897,1.9884285826806798e+30,116863.723560309,143002528338802.97,0.0
898,1.9884285826808338e+30,116863.7485810214,132214585601680.42,0.0
899,1.9884285801977443e+30,116953.27594953966,323894337422129.5,0.0
900,1.98842858268085e+30,116863.74589733161,133062075983831.11,0.0
901,1.9884285826808028e+30,116863.74558730073,133613366963771.03,0.0
902,1.988428582510086e+30,116868.55712400851,249209949665530.28,0.0
903,1.9884285826808417e+30,116863.74649933226,132920123869647.6,0.0
904,1.988428582678067e+30,116863.7404880687,163908011860506.25,0.0
905,1.9884285826740618e+30,116863.85677546522,161000299125112.12,0.0
906,1.9884285826786087e+30,116863.78717755066,139728490782667.34,0.0
907,1.9884285826808433e+30,116863.73930021911,135502144351156.3,0.0
908,1.9884285826805425e+30,116863.71778537538,146593049476702.06,0.0
909,1.988428582584653e+30,116866.48619695676,152066934717890.75,0.0
910,1.9884285826808433e+30,116863.7497025298,131678522343961.16,0.0
911,1.9884285826257097e+30,116865.27994394168,145949886259914.7,0.0
912,1.98842858267952e+30,116863.75320603325,143364021430965.7,0.0
913,1.9884285826802264e+30,116863.72852370616,145648429264844.8,0.0
914,1.988428582401964e+30,116871.93055077588,268397076705285.38,0.0
915,1.9884285826320556e+30,116865.00877460955,181060649919047.7,0.0
916,1.98842858267843e+30,116863.78735128151,141495139788920.88,0.0
917,1.9884285825684276e+30,116866.84874838144,207691422081269.94,0.0
918,1.988428582680798e+30,116863.73073653744,139143526354369.6,0.0
919,1.9884285826788722e+30,116863.76363286194,146019579337385.88,0.0
920,1.9884285826806353e+30,116863.72284203793,143714985797103.2,0.0
921,1.9884285826796572e+30,116863.73749966724,148017833284766.1,0.0
922,1.9884285825941406e+30,116866.19077800312,156236072695191.4,0.0
923,1.9884285826531938e+30,116864.37865885558,189179438525206.0,0.0
924,1.9884285826750796e+30,116863.80946253601,169047307709689.22,0.0
925,1.9884285826797887e+30,116863.76888672388,134821662466959.89,0.0
926,1.9884285826808403e+30,116863.74539845342,133285695083844.03,0.0
927,1.98842858267705e+30,116863.78336217403,157640498606787.25,0.0
928,1.9884285826807657e+30,116863.71816792416,144195828876754.56,0.0
929,1.9884285826808023e+30,116863.74564015558,133574635906630.36,0.0
930,1.988428582680842e+30,116863.7452340505,133303127460835.58,0.0
931,1.9884285826668124e+30,116864.01200604826,180570503693511.9,0.0
932,1.9884285826136358e+30,116865.4499045928,228645945630814.34,0.0
933,1.988428582678632e+30,116863.76382269042,148428679867591.03,0.0
934,1.988428582680329e+30,116863.76092815344,132504322602123.28,0.0
935,1.98842858263029e+30,116865.14576882753,145919309356344.25,0.0
936,1.9884285826808433e+30,116863.74452913506,133569814293537.86,0.0
937,1.988428582676545e+30,116863.76546570616,170715608652752.8,0.0
938,1.9884285825352487e+30,116867.96743310883,161208198688663.7,0.0
939,1.988428582620916e+30,116865.40874394818,150715365855399.38,0.0
940,1.988428582678909e+30,116863.71756475663,164012620113093.1,0.0
941,1.9884285826746729e+30,116863.8610997466,152512690691365.22,0.0
942,1.9884285820685016e+30,116883.13281861224,181401748751548.44,0.0
943,1.9884285826664498e+30,116864.0825030495,155272048163370.75,0.0
944,1.9884285826749738e+30,116863.85457535964,151828992662429.88,0.0
945,1.9884285826808028e+30,116863.75191171642,131313650311751.02,0.0
946,1.9884285826803325e+30,116863.74560482737,138115164747926.5,0.0
947,1.9884285826588306e+30,116864.35969537956,131619839001679.5,0.0
948,1.988428582680827e+30,116863.75102790656,131196132769642.89,0.0
949,1.988428582666248e+30,116864.11980337538,142913515889783.03,0.0
950,1.9884285826752507e+30,116863.85035068294,150487225058327.3,0.0
951,1.9884285826807431e+30,116863.75220902929,131742295325570.34,0.0
952,1.9884285826805819e+30,116863.72742855351,142504589492196.78,0.0
953,1.9884285825362542e+30,116867.91937703604,168313160374802.22,0.0
954,1.9884285826743534e+30,116863.86705492072,153610302730453.06,0.0
955,1.9884285826805906e+30,116863.71126364797,148648128840778.28,0.0
956,1.98842858268021e+30,116863.72437384802,147424197142452.16,0.0
957,1.9884285824971342e+30,116869.15479177238,158222540382466.47,0.0
958,1.9884285826753644e+30,116863.80011333818,169694043330089.44,0.0
959,1.988428582545851e+30,116867.44024122112,256847886346287.97,0.0
960,1.9884285826768357e+30,116863.81084325105,149045553969556.97,0.0
961,1.9884285826561462e+30,116864.37622028006,154413917641201.9,0.0
962,1.9884285825854073e+30,116866.44462562648,159631016334126.12,0.0
963,1.9884285811475743e+30,116915.73292496418,503154511505748.5,0.0
964,1.98842858267992e+30,116863.75594388385,138319379950430.0,0.0
965,1.988428582680437e+30,116863.75927736568,132054309423356.53,0.0
966,1.9884285826805802e+30,116863.75245343972,133210742149839.73,0.0
967,1.9884285826800276e+30,116863.75736410545,136734958911163.31,0.0
968,1.98842857036595e+30,117529.43958850577,783381145172356.0,0.0
969,1.9884285826808405e+30,116863.7489911242,131934484320262.95,0.0
970,1.9884285826802762e+30,116863.7318055303,143887865490670.7,0.0
971,1.9884285825320545e+30,116868.1177945228,140751875976874.12,0.0
972,1.988428582671763e+30,116863.96836068714,142048045365181.72,0.0
973,1.9884285826440335e+30,116864.77346717595,135489669195234.31,0.0
974,1.9884285826803066e+30,116863.73083690759,143945428206675.94,0.0
975,1.9884285826802337e+30,116863.76629798535,131467205570239.12,0.0
976,1.988428582629325e+30,116865.00501329653,219999012803241.66,0.0
977,1.9884285812695844e+30,116911.5824942278,229047918975668.88,0.0
978,1.988428582559339e+30,116867.04302309825,248953761542807.1,0.0
979,1.9884285826418706e+30,116864.78389526444,155564865680115.12,0.0
980,1.988428582649945e+30,116864.55782712015,152787902993852.25,0.0
981,1.9884285826808448e+30,116863.74712650896,132637986045373.7,0.0
982,1.988428582680811e+30,116863.73661171056,136830297568185.86,0.0
983,1.988428582680837e+30,116863.7475854874,132445189590394.0,0.0
984,1.9884285824522654e+30,116870.49988894991,184668790412169.84,0.0
985,1.9884285826612727e+30,116864.17828119919,176110466112593.38,0.0
986,1.988428582630564e+30,116865.12496392168,150871849719489.8,0.0
987,1.9884285826807986e+30,116863.73834338317,136297662566175.1,0.0
988,1.98842858267245e+30,116863.89643070626,162967220249087.8,0.0
989,1.988428582680832e+30,116863.7514457052,131224467995948.14,0.0
990,1.9884285826638428e+30,116864.09071861154,182650545534737.94,0.0
991,1.9884285826734923e+30,116863.93474294292,136700393950211.1,0.0
992,1.9884285826660245e+30,116864.01189698675,190449396905118.8,0.0
993,1.9884285826724523e+30,116863.89594147015,163150644416498.75,0.0
994,1.9884285826808417e+30,116863.74795710582,132309900817866.81,0.0
995,1.9884285826786335e+30,116863.76277832578,148825281736781.9,0.0
996,1.9884285826808436e+30,116863.74904926847,131913190208990.42,0.0
997,1.988428582680182e+30,116863.75241581473,137049436993365.9,0.0
998,1.988428582666853e+30,116864.0035823876,183767546653702.5,0.0
999,1.9884285826807592e+30,116863.7174056406,144575265296324.44,0.0
