,0,1,2,3
0,1.9884285826804636e+30,116863.73470655039,140914608344585.44,0.0
1,1.988428582491482e+30,116869.08705570502,276037306520453.38,0.0
2,1.98842858268029e+30,116863.7420950462,139856381103199.03,0.0
3,1.9884285826789406e+30,116863.76735120633,143878810925919.0,0.0
4,1.9884285826799007e+30,116863.7324907158,147445103206356.6,0.0
5,1.9884285826704592e+30,116863.91657583442,177779150238662.06,0.0
6,1.9884285826691244e+30,116863.95908595045,175471295717038.62,0.0
7,1.9884285826801672e+30,116863.73815256105,142559374189797.94,0.0
8,1.9884285825433727e+30,116867.56778194335,229840132548713.9,0.0
9,1.988428582574548e+30,116866.78624891936,154005271579853.3,0.0
10,1.98842858268082e+30,116863.32303058896,344925268688746.25,1.0
11,1.988428582680728e+30,116863.73519692864,138151942848643.66,0.0
12,1.9884285826115847e+30,116865.59005397995,190682227578959.16,0.0
13,1.988428582680846e+30,116863.74993963372,131593010424440.77,0.0
14,1.988428582680844e+30,116863.73801923048,135999053102854.77,0.0
15,1.988428582673606e+30,116863.89750185146,149719886123201.0,0.0
16,1.988428582680837e+30,116863.74999874207,131686323864371.81,0.0
17,1.9884285825923105e+30,116866.29451015932,137344615292667.16,0.0
18,1.988428582678426e+30,116863.79026073363,140427992248092.42,0.0
19,1.988428582680842e+30,116863.7377591266,136098538013462.75,0.0
20,1.9884285826790132e+30,116863.76288438698,144842242288540.88,0.0
21,1.98842858268065e+30,116863.72258248928,143680860763850.44,0.0
22,1.9884285826129367e+30,116865.49846220051,214843629423091.03,0.0
23,1.9884285826805886e+30,116863.71278438898,148057707900896.44,0.0
24,1.9884285826632863e+30,116864.18290532207,150755463635763.47,0.0
25,1.9884285826808462e+30,116863.75088372383,131290927982258.4,0.0
26,1.9884285826807901e+30,116863.72093575685,142926342402786.75,0.0
27,1.988428582675299e+30,116863.82942504116,158310411871283.0,0.0
28,1.988428582673029e+30,116863.84081370401,179777006848506.5,0.0
29,1.9884285825977784e+30,116865.97441012107,203034362523537.03,0.0
30,1.988428582680844e+30,116863.74682225502,132723026432993.58,0.0
31,1.9884285826808495e+30,116863.74827194853,132197831805758.97,0.0
32,1.9884285826755502e+30,116863.82984276774,155376982195456.88,0.0
33,1.9884285826789752e+30,116863.72533244552,160109144488757.44,0.0
34,1.9884285826800516e+30,116863.755133041,137315007909478.36,0.0
35,1.988428582654819e+30,116864.36555280589,174505549639351.56,0.0
36,1.9884285826576248e+30,116864.3562672813,145710212350943.94,0.0
37,1.9884285822113892e+30,116878.42702908539,140690450440693.53,0.0
38,1.988428582676495e+30,116863.79368403197,159561876611209.84,0.0
39,1.988428582680842e+30,116863.74266890963,134292510215261.45,0.0
40,1.988428582680807e+30,116863.72367839291,141727441533789.22,0.0
41,1.9884285826806275e+30,116863.74973845592,133728561256787.48,0.0
42,1.9884285826484225e+30,116864.53248048275,181669251342797.7,0.0
43,1.9884285825780214e+30,116866.598788357,188957867836443.06,0.0
44,1.9884285826720388e+30,116863.8892815555,170705132924066.22,0.0
45,1.9884285826808493e+30,116863.74994431972,131597634114334.66,0.0
46,1.988428582679999e+30,116863.76138074243,135513471776069.61,0.0
47,1.9884285826335527e+30,116864.88469147684,218381658600873.4,0.0
48,1.9884285826144665e+30,116865.62615980617,140363887289258.89,0.0
49,1.9884285826721888e+30,116863.97287595339,135922846755178.03,0.0
50,1.988428582663613e+30,116864.12965608273,168663301769498.2,0.0
51,1.9884285826708836e+30,116863.94383268293,161321261093852.06,0.0
52,1.9884285826806517e+30,116863.74457031029,135406256154374.2,0.0
53,1.988428582662737e+30,116864.11256004058,186793440100796.97,0.0
54,1.9884285826808374e+30,116863.7515136577,131131679835114.4,0.0
55,1.9884285826791024e+30,116863.73181293599,156098004337851.94,0.0
56,1.9884285826655128e+30,116864.10771231927,155714238778318.56,0.0
57,1.988428582641888e+30,116864.7823577097,155981245850019.06,0.0
58,1.9884285825967611e+30,116866.0363600167,188541850235363.3,0.0
59,1.988428582680787e+30,116863.74237379822,134934935137157.0,0.0
60,1.988428582674785e+30,116863.81543566732,169936254089798.38,0.0
61,1.988428582600486e+30,116866.05026428508,137206467484135.36,0.0
62,1.9884285826697096e+30,116863.96289073546,166919614175766.06,0.0
63,1.9884285826801205e+30,116863.75712503027,135916130528466.84,0.0
64,1.9884285826807992e+30,116863.7438740663,134275453762578.42,0.0
65,1.988428582670908e+30,116863.93736986477,163698658834700.94,0.0
66,1.9884285826808403e+30,116863.74000309898,135276347818053.94,0.0
67,1.9884285826531428e+30,116864.38475622605,187100630838468.8,0.0
68,1.9884285826715285e+30,116863.90293492601,170900378583310.88,0.0
69,1.98842858268084e+30,116863.74643047024,132887237666043.86,0.0
70,1.9884285826773545e+30,116863.78909182525,152056286270388.0,0.0
71,1.9884285826805762e+30,116863.72258864324,144408112053421.22,0.0
72,1.9884285823804676e+30,116872.82663837788,167968164400150.94,0.0
73,1.9884285820351603e+30,116883.9315579669,367264862259201.0,0.0
74,1.9884285826519834e+30,116864.51593127432,146294018036172.84,0.0
75,1.9884285826110972e+30,116865.62228632986,182737176629936.0,0.0
76,1.988428582680639e+30,116863.75486916394,131774980623408.22,0.0
77,1.9884285826619637e+30,116864.23358988056,145557886192273.44,0.0
78,1.988428582680825e+30,116863.74277683029,134430992713377.39,0.0
79,1.9884285826692522e+30,116864.06752606244,131151432688887.0,0.0
80,1.9884285825048196e+30,116868.80547335798,206596816630549.5,0.0
81,1.988428582680801e+30,116863.73573098233,137225632556706.52,0.0
82,1.988428582587574e+30,116866.32251143132,183803755743470.16,0.0
83,1.9884285826742847e+30,116863.89308001928,144201991302108.34,0.0
84,1.9884285826764957e+30,116863.79357929135,159602407813704.3,0.0
85,1.9884285826078262e+30,116865.82934406432,138046224699429.03,0.0
86,1.9884285826721325e+30,116863.86114758343,181738527387553.78,0.0
87,1.9884285826808127e+30,116863.72797479872,140040513453224.14,0.0
88,1.9884285826330917e+30,116864.9237207554,206047406182646.25,0.0
89,1.9884285826794385e+30,116863.7309823208,152845845457303.22,0.0
90,1.9884285826091984e+30,116865.74434865023,155117606282051.2,0.0
91,1.9884285826593513e+30,116864.29103498146,152018592550602.84,0.0
92,1.9884285826638324e+30,116864.092398737,182031126848217.38,0.0
93,1.9884285826807918e+30,116863.7329813649,138377427571969.38,0.0
94,1.9884285826598912e+30,116864.21552948633,176937274723784.44,0.0
95,1.9884285826688334e+30,116864.02489090062,151677439136886.47,0.0
96,1.9884285826647486e+30,116864.09162449896,171217559626208.16,0.0
97,1.988428582680533e+30,116863.74282585054,137209284888712.22,0.0
98,1.9884285815965322e+30,116899.32951839297,382209656961449.25,0.0
99,1.9884285826758325e+30,116863.80870554387,160810326321835.47,0.0
100,1.9884285826604108e+30,116864.30268680384,136072643597853.94,0.0
101,1.9884285826805602e+30,116863.7366715396,139217745204473.81,0.0
102,1.9884285826728033e+30,116863.91395749111,151949721440120.3,0.0
103,1.988428582680429e+30,116863.75460039143,133852820881449.78,0.0
104,1.988428582669682e+30,116863.96982459805,164370450750836.8,0.0
105,1.9884285826779988e+30,116863.79755111253,142027449728630.9,0.0
106,1.9884285826205238e+30,116865.43544943426,144828946955878.5,0.0
107,1.9884285826704665e+30,116863.91466156831,178522424756949.44,0.0
108,1.9884285826808363e+30,116863.75020753233,131600951424896.9,0.0
109,1.9884285826551999e+30,116864.31828229383,190548145787917.28,0.0
110,1.988428581647994e+30,116897.90111871138,155794152458758.94,0.0
111,1.988428582608426e+30,116865.79250950804,145236899337659.56,0.0
112,1.9884285826667347e+30,116864.02745410417,174805208459013.78,0.0
113,1.9884285826808433e+30,116863.7370970503,136324381397400.28,0.0
114,1.9884285826747762e+30,116863.8185568227,168707065897760.62,0.0
115,1.9884285815514768e+30,116901.1038366251,290684165957474.5,0.0
116,1.9884285826793771e+30,116863.7467093685,147307523941656.38,0.0
117,1.988428582485209e+30,116869.37749883383,225765556826701.56,0.0
118,1.988428582680812e+30,116863.74456001121,133891995603843.36,0.0
119,1.9884285826723586e+30,116863.92380722106,152915017532278.9,0.0
120,1.9884285826808417e+30,116863.73562771497,136898893984696.89,0.0
121,1.9884285818601265e+30,116890.22232630568,228827894253498.25,0.0
122,1.9884285826743846e+30,116863.85576229359,157811438549946.25,0.0
123,1.9884285826493018e+30,116864.62320280995,134882591051692.81,0.0
124,1.9884285826769328e+30,116863.85457347622,131593826668099.72,0.0
125,1.9884276040595985e+30,114961.27057895904,5.601337160245025e+22,0.0
126,1.9884285826802877e+30,116863.75230755175,136074730907214.66,0.0
127,1.9884285826808405e+30,116863.74640315598,132948492561806.03,0.0
128,1.9884285826803266e+30,116863.71185983144,151115333714426.62,0.0
129,1.988428582573833e+30,116866.82385629787,147735301250955.62,0.0
130,1.988428581163836e+30,116672.35614641565,8.629889589945275e+19,1.0
131,1.9884285824792372e+30,116869.64584836434,187204067736235.28,0.0
132,1.988428582661331e+30,116864.1693943694,179252813900068.78,0.0
133,1.9884285826156875e+30,116865.54665102104,157270893875611.12,0.0
134,1.9884285826808445e+30,116863.74222513229,134454901969804.73,0.0
135,1.9884285826127987e+30,116865.50793316762,212233378032945.94,0.0
136,1.9884285826734513e+30,116863.94868911398,132019646169337.53,0.0
137,1.988428582680131e+30,116863.71812628148,150655628120466.94,0.0
138,1.9884285826775768e+30,116863.83046546251,133997486042092.25,0.0
139,1.9884285826808425e+30,116863.74892797948,131957181550088.56,0.0
140,1.9884285826804026e+30,116863.71641645923,148541605044539.28,0.0
141,1.9884285826641893e+30,116864.18645351872,139609515765758.0,0.0
142,1.9884285826803556e+30,116863.70947980495,151762255572721.03,0.0
143,1.9884285826794458e+30,116863.72111022258,156725137405081.7,0.0
144,1.9884285826465082e+30,116864.53425576475,206045628717894.38,0.0
145,1.988428582680847e+30,116863.7425257631,134322895527278.94,0.0
146,1.9884285826806474e+30,116863.72546902548,142583270998076.97,0.0
147,1.988428582680849e+30,116863.74800516016,132300962518061.67,0.0
148,1.9884285826785958e+30,116863.80096481973,134743152771051.58,0.0
149,1.9884285826773032e+30,116863.8225091862,139705587790762.6,0.0
150,1.988428582460434e+30,116870.14299520939,231879128190869.03,0.0
151,1.9884285819061629e+30,116888.42897596097,334997610924128.9,0.0
152,1.9884285826806058e+30,116863.71164274884,148327138634440.88,0.0
153,1.9884285826792114e+30,116863.74902609388,148134386961701.1,0.0
154,1.9884285826808453e+30,116863.74782134742,132364150888167.1,0.0
155,1.9884285826806052e+30,116863.7349207107,139453641762773.81,0.0
156,1.9884285826788232e+30,116863.73308223966,158621513935831.62,0.0
157,1.9884285826760774e+30,116863.79798087028,162468488666720.44,0.0
158,1.988428582680562e+30,116863.72508529185,143586535065564.9,0.0
159,1.9884285826489717e+30,116864.47359571942,201203849321051.5,0.0
160,1.9884285824505414e+30,116870.5738453313,176133965080489.78,0.0
161,1.9884285826740353e+30,116863.86656939442,157319620814323.75,0.0
162,1.9884285826777263e+30,116863.8191167919,136699455183432.88,0.0
163,1.9884285826804217e+30,116863.73274580846,142064729603586.6,0.0
164,1.9884285826805315e+30,116863.74702254601,135661036562936.38,0.0
165,1.9884285805704622e+30,116938.48146446694,223869356468627.12,0.0
166,1.9884285825045083e+30,116868.81982293769,204358353273560.1,0.0
167,1.9884285817643836e+30,116893.3810685744,349465246376161.1,0.0
168,1.9884285826805104e+30,116863.7164599299,147419546294719.53,0.0
169,1.9884285826620242e+30,116864.22472029863,148340171639684.3,0.0
170,1.9884285826145839e+30,116865.61861897867,141898896037221.06,0.0
171,1.9884285826807845e+30,116863.72675006287,140771873324828.0,0.0
172,1.9884285826775985e+30,116863.81636695469,139016574528665.22,0.0
173,1.9884285826580748e+30,116864.29798281073,163865707105689.62,0.0
174,1.9884285826786186e+30,116863.77713396472,143430418413807.8,0.0
175,1.988428581513242e+30,116902.60147635646,231612222478432.5,0.0
176,1.9884285826806322e+30,116863.71923998794,145138766229330.94,0.0
177,1.9884285826723504e+30,116863.92608484048,152097349594641.53,0.0
178,1.988428581644526e+30,116898.03462563065,152220618162429.7,0.0
179,1.9884285826808417e+30,116863.74434513474,133633329112091.44,0.0
180,1.9884285826799446e+30,116863.76709863475,133959780015222.67,0.0
181,1.9884285826808352e+30,116863.74373437218,133955743981453.25,0.0
182,1.9884285826776362e+30,116863.78901033622,149084489150055.0,0.0
183,1.9884285826805568e+30,116863.70953650522,149646849703780.84,0.0
184,1.9884285826802162e+30,116863.76572418396,131842687734320.84,0.0
185,1.9884285826188764e+30,116865.32615809068,213219666748687.88,0.0
186,1.9884285826808335e+30,116863.74093949926,135037310888640.16,0.0
187,1.988428582679308e+30,116863.7731640497,137963889078393.33,0.0
188,1.9884285824883972e+30,116869.23106226223,249909891078046.28,0.0
189,1.988409870698051e+30,108452.17599582183,1.311232337733786e+24,0.0
190,1.9884285826808436e+30,116863.74682416029,132745901695337.02,0.0
191,1.9884285826805864e+30,116863.73674554497,138940695633068.9,0.0
192,1.9884285826804237e+30,116863.72424630779,145295240170964.34,0.0
193,1.9884285826763572e+30,116863.8681770432,132344228405446.53,0.0
194,1.988428582471512e+30,116869.9827275442,147743329831611.25,0.0
195,1.9884285826808363e+30,116863.74216114705,134544587390910.2,0.0
196,1.988428582622899e+30,116865.26846434773,184959105758014.12,0.0
197,1.9884285826808267e+30,116863.74914260424,131879204071966.6,0.0
198,1.9884285826017036e+30,116865.9785024162,150741755545453.38,0.0
199,1.9884285826807727e+30,116863.74196291054,135227817668760.16,0.0
200,1.9884285826808405e+30,116863.74979817303,131644875233041.81,0.0
201,1.9884285826808504e+30,116863.74892904742,131958792891120.06,0.0
202,1.9884285826807696e+30,116863.71852030203,144047575046143.9,0.0
203,1.9884285826546527e+30,116864.38563366745,167995295296918.28,0.0
204,1.9884285826778665e+30,116863.80736178138,139662286646740.34,0.0
205,1.988428582676198e+30,116863.84494602703,142585400502542.8,0.0
206,1.9884285826486198e+30,116864.51160762591,188424820188711.44,0.0
207,1.988428582680832e+30,116863.74894788774,132105896450607.0,0.0
208,1.9884285826805225e+30,116863.7465481864,135910455871214.42,0.0
209,1.9884285824364046e+30,116870.83267592314,268994364624724.25,0.0
210,1.9884285826056884e+30,116865.73086649712,206605689609451.44,0.0
211,1.9884285826778133e+30,116863.75344300954,161401432877600.06,0.0
212,1.9884285817047616e+30,116895.70794941607,229329621999332.3,0.0
213,1.988428582679175e+30,116863.71729873042,161192832745930.12,0.0
214,1.9884285826752603e+30,116863.84667991173,151841438509125.4,0.0
215,1.9884285826803153e+30,116863.75939283377,133197730256850.77,0.0
216,1.988428582660934e+30,116864.22871832582,159001425144521.06,0.0
217,1.988428582680841e+30,116863.73546044434,136977900807745.95,0.0
218,1.9884285826799615e+30,116863.7226819408,150640110734223.03,0.0
219,1.9884285821413828e+30,116880.7421138279,150616540059885.1,0.0
220,1.9884285808014214e+30,116928.97199101854,513515354929978.0,0.0
221,1.9884285826794315e+30,116863.74561524835,147204245080517.16,0.0
222,1.9884285826808225e+30,116863.7483767454,132388403138804.45,0.0
223,1.9884285826512496e+30,116864.4154069032,197848511639493.0,0.0
224,1.9884285826806458e+30,116863.73135519776,140403458547767.25,0.0
225,1.988428582680835e+30,116863.72761682581,139978905604049.61,0.0
226,1.9884285822994214e+30,116875.35746368881,211897831833100.2,0.0
227,1.9884285826808042e+30,116863.74495382942,133819369543270.3,0.0
228,1.9884285826613456e+30,116864.16725628552,180014625806647.9,0.0
229,1.98842858268084e+30,116863.74724824843,132567800246890.3,0.0
230,1.988428582676375e+30,116863.85899361146,135528162971291.6,0.0
231,1.9884285826413195e+30,116864.8323200306,142884025961626.9,0.0
232,1.9884285826808473e+30,116863.74050744476,135046940262363.16,0.0
233,1.9884285826530347e+30,116864.39742016814,182836197026011.88,0.0
234,1.9884285826808467e+30,116863.73998096518,135279769817018.81,0.0
235,1.9884285826624048e+30,116864.16621683392,167629653777564.3,0.0
236,1.9884285825055593e+30,116868.77101459568,212067576653752.62,0.0
237,1.9884285826808428e+30,116863.74917799908,131866805311187.12,0.0
238,1.9884285826712707e+30,116863.9734493742,145300977186329.75,0.0
239,1.9884285826808448e+30,116863.74539566902,133243861848259.16,0.0
240,1.9884285824654646e+30,116869.91751910355,267539039279148.3,0.0
241,1.9884285826808366e+30,116863.74663966177,132901161131721.34,0.0
242,1.9884285826806714e+30,116863.71311776563,147114188009678.22,0.0
243,1.9884285826800085e+30,116863.74233368413,142574731088537.97,0.0
244,1.9884285818118516e+30,116892.07898699226,155621489021139.56,0.0
245,1.9884285826807868e+30,116863.74260712837,134821520929594.27,0.0
246,1.9884285826455816e+30,116864.62823252389,175647359731349.12,0.0
247,1.988428582661145e+30,116864.19772055432,169371210958470.3,0.0
248,1.9884285823827124e+30,116872.73514714053,176199214255890.72,0.0
249,1.9884285826661785e+30,116864.13250575397,138862776590736.72,0.0
250,1.9884285826801186e+30,116863.76165318338,134263901159057.34,0.0
251,1.988428582680685e+30,116863.72029496584,144213172269686.97,0.0
252,1.98842858264692e+30,116864.68269352386,138247314061702.42,0.0
253,1.9884285826807823e+30,116863.74704956108,133251839385631.23,0.0
254,1.988428582680842e+30,116863.73547452285,136971922075100.78,0.0
255,1.9884285826801974e+30,116863.76575948934,132005407169949.2,0.0
256,1.98842858268084e+30,116863.7493872496,131790468134495.47,0.0
257,1.9884285826561445e+30,116864.37646462744,154339133340236.3,0.0
258,1.9884285826308973e+30,116865.09954337098,157105271035725.97,0.0
259,1.9884285826807657e+30,116863.71862656371,144034280642669.5,0.0
260,1.988428582680659e+30,116863.75327076582,132151218118013.0,0.0
261,1.9884285826767155e+30,116863.77601715321,164366370073914.84,0.0
262,1.988428582680616e+30,116863.72098058344,144621413886065.3,0.0
263,1.9884285826790422e+30,116863.72486193474,159554403655421.56,0.0
264,1.9884285826789223e+30,116863.78707208064,136624414215235.77,0.0
265,1.9884285826799066e+30,116863.71737119745,153315124445822.1,0.0
266,1.9884285826784888e+30,116863.7290367252,163944047134859.97,0.0
267,1.9884285826445334e+30,116864.72807394357,147195233156262.3,0.0
268,1.988428582680847e+30,116863.74628085164,132924164953102.38,0.0
269,1.9884285826175655e+30,116865.41920958979,187892065758027.22,0.0
270,1.988428582668195e+30,116864.02189919594,160013861262124.03,0.0
271,1.9884285826772154e+30,116863.78041802258,157023855265226.56,0.0
272,1.988428578843266e+30,117011.17667812631,372462839523792.25,0.0
273,1.9884285824319905e+30,116871.02544943884,240652210545229.38,0.0
274,1.9884285826664453e+30,116864.0832606432,155014078829251.25,0.0
275,1.9884285816356325e+30,116898.3765567819,143462487514645.3,0.0
276,1.988428582680842e+30,116863.74141065184,134714312130624.44,0.0
277,1.988428582680835e+30,116863.73866796796,135850703552536.78,0.0
278,1.9884285820408664e+30,116884.18958690802,135190746784651.6,0.0
279,1.9884285826807727e+30,116863.73330596264,138423961823711.42,0.0
280,1.988428582647478e+30,116864.62863351796,152854805340312.3,0.0
281,1.988428582531035e+30,116868.16501649024,134849713617219.06,0.0
282,1.988428582680469e+30,116863.75718252533,132526605757394.8,0.0
283,1.9884285826808214e+30,116863.7396201568,135617643281919.12,0.0
284,1.9884285826647162e+30,116864.09738839597,169168656619953.94,0.0
285,1.9884285826566297e+30,116864.31559264442,173790384232253.4,0.0
286,1.9884285826808479e+30,116863.74884109513,131990372823108.02,0.0
287,1.9884285825789956e+30,116866.54465239024,200284393072183.75,0.0
288,1.9884285826797937e+30,116863.75456905497,140079365837165.33,0.0
289,1.9884285826597113e+30,116864.24107253428,168207528740243.22,0.0
290,1.9884285826807977e+30,116863.7294278918,139641681737753.2,0.0
291,1.98842858268061e+30,116863.7138362103,147422423062799.56,0.0
292,1.9884285826808135e+30,116863.74264515955,134566129772231.84,0.0
293,1.98842858239633e+30,116872.1699469714,236823378265784.88,0.0
294,1.988428582680721e+30,116863.72227865136,143085587682581.5,0.0
295,1.9884285826004527e+30,116866.05224060247,136849113521646.47,0.0
296,1.9884285826798785e+30,116863.70891968238,156979339005694.34,0.0
297,1.9884285826714153e+30,116863.9344458901,159125022824014.12,0.0
298,1.988428582635053e+30,116864.97375955338,158913733657177.9,0.0
299,1.9884285826806055e+30,116863.75714883539,131233936166459.69,0.0
300,1.9884285826573033e+30,116864.39642400606,134073675748573.9,0.0
301,1.9884285826789544e+30,116863.75011174809,150409546015449.8,0.0
302,1.9884285826808456e+30,116863.74702463522,132650212381795.42,0.0
303,1.98842858268063e+30,116863.7265106504,142367565589263.3,0.0
304,1.9884285826752865e+30,116863.83481841376,156270032953573.06,0.0
305,1.9884285826808473e+30,116863.73915901947,135558515492319.19,0.0
306,1.9884285826808265e+30,116863.73767616696,136299081414671.7,0.0
307,1.9884285826808464e+30,116863.74217047384,134449917732923.55,0.0
308,1.9884285826627496e+30,116864.11037450802,187604643685758.3,0.0
309,1.988428581979022e+30,116886.12634309047,213228735448336.7,0.0
310,1.9884285813680384e+30,116907.67701568927,377174389828314.5,0.0
311,1.9884285826787542e+30,116863.72041780004,164551635447074.44,0.0
312,1.9884285826699885e+30,116864.03207670143,136610192898401.05,0.0
313,1.9884285826801467e+30,116863.73477009205,144041771476367.5,0.0
314,1.988428582680841e+30,116863.75052860365,131376941175148.12,0.0
315,1.988428582672262e+30,116863.95199571908,142994551130767.88,0.0
316,1.9884285826808433e+30,116863.74680294892,132730023359297.45,0.0
317,1.9884285826807063e+30,116863.7518184109,132233765291268.97,0.0
318,1.988428582646177e+30,116864.56855903367,194526854044543.06,0.0
319,1.9884285826621928e+30,116864.19896873272,156628578213075.28,0.0
320,1.988428582680801e+30,116863.74261092233,134697340328261.78,0.0
321,1.9884285826728272e+30,116863.90653196008,154637938454227.1,0.0
322,1.9884285826785327e+30,116863.77638753846,144610363798987.84,0.0
323,1.9884285826793166e+30,116863.76022414108,142748359804764.94,0.0
324,1.9884285826707747e+30,116863.97188813632,151263534142348.75,0.0
325,1.9884285826047016e+30,116865.79415697823,190881850870051.7,0.0
326,1.9884285826675397e+30,116864.01397677457,170925190890434.7,0.0
327,1.9884285826808428e+30,116863.7444748933,133583046136910.64,0.0
328,1.9884285826766235e+30,116863.82812682164,144576937408039.88,0.0
329,1.988428582680832e+30,116863.73477438209,137327341768329.8,0.0
330,1.9884285826808113e+30,116863.73755971853,136464132473545.69,0.0
331,1.9884285826782273e+30,116863.7899286942,142578032517991.8,0.0
332,1.9884285826469802e+30,116864.6770327792,139725195534621.73,0.0
333,1.9884285826699804e+30,116864.03405060557,135967936990116.19,0.0
334,1.9884285813097782e+30,116909.99116651196,280063915337880.0,0.0
335,1.9884285826572358e+30,116864.40462066027,131783553622167.73,0.0
336,1.9884285826808512e+30,116863.74848333598,132126989761896.67,0.0
337,1.9884285826753712e+30,116863.79719252793,170855847463725.88,0.0
338,1.9884285826681246e+30,116864.03672432681,154824978428589.22,0.0
339,1.9884285826753453e+30,116863.80878876027,166272702222476.75,0.0
340,1.988428582680715e+30,116863.72411460661,142437437799741.2,0.0
341,1.9884285826776382e+30,116863.78777132684,149550835662409.47,0.0
342,1.98842858266923e+30,116863.93410948232,185113234228498.88,0.0
343,1.988428582678039e+30,116863.76370763934,154770948324660.75,0.0
344,1.9884285826805326e+30,116863.73805805403,138981074889449.25,0.0
345,1.988428579769203e+30,116970.74251707197,521406570118505.5,0.0
346,1.988428582621657e+30,116865.35742315311,162581598089795.25,0.0
347,1.9884285823878817e+30,116872.5226563723,196915816909022.88,0.0
348,1.9884285824158316e+30,116871.70919843101,161895670486934.3,0.0
349,1.9884285826020284e+30,116865.95905851472,154601689042025.66,0.0
350,1.9884285826799027e+30,116863.72555891654,150119080768428.88,0.0
351,1.98842858267994e+30,116863.7080032035,156712321492306.97,0.0
352,1.988428582505871e+30,116868.75650750234,214411580345884.75,0.0
353,1.9884285826806655e+30,116863.72744339073,141675013157984.44,0.0
354,1.988428582672891e+30,116863.88622263886,162146866501102.72,0.0
355,1.9884285826099412e+30,116865.69722408634,165331117431311.0,0.0
356,1.9884285826805768e+30,116863.72602157653,143100499769921.03,0.0
357,1.9884285826808014e+30,116863.74744481804,132928861348083.03,0.0
358,1.9884285826808042e+30,116863.74963487149,132119485905293.11,0.0
359,1.9884285822885795e+30,116875.78889233309,176991630019936.88,0.0
360,1.988428582680156e+30,116863.70612894173,155157562368108.25,0.0
361,1.9884285826807972e+30,116863.72747516716,140353500942136.77,0.0
362,1.9884285825724544e+30,116866.89538391837,136442015287944.88,0.0
363,1.9884285826807153e+30,116863.720111002,143961433702040.88,0.0
364,1.98842858267673e+30,116863.76675117128,168052508012047.34,0.0
365,1.9884285826590856e+30,116864.32663399132,141180750140616.06,0.0
366,1.9884285825948997e+30,116866.14679490098,164907413796539.03,0.0
367,1.9884285826807634e+30,116863.73122094656,139268689858113.08,0.0
368,1.9884285826725936e+30,116840.75399454792,4.684316879628844e+17,1.0
369,1.9884285826031965e+30,116865.88805928346,169425757359469.2,0.0
370,1.988428582621859e+30,116865.34322053859,165997615504273.22,0.0
371,1.9884285797135257e+30,116973.1777655325,452517678825240.75,0.0
372,1.9884285826750965e+30,116863.80129728887,172289810902887.7,0.0
373,1.98842858265229e+30,116864.48248202441,156006730731375.5,0.0
374,1.9884285826808408e+30,116863.74854994492,132094389220369.7,0.0
375,1.988428582680524e+30,116863.74624160533,136023315933541.2,0.0
376,1.9884285826802638e+30,116863.71482570413,150590186228670.5,0.0
377,1.9884285826724315e+30,116863.90200968456,160884992435548.25,0.0
378,1.9884285826141417e+30,116865.64685143795,136223526890740.75,0.0
379,1.9884285826669855e+30,116864.12319390089,133941337057346.75,0.0
380,1.9884285743698406e+30,117244.79767816603,250654887592340.0,0.0
381,1.988428582678513e+30,116863.79532351566,137652485643935.75,0.0
382,1.9884285826552958e+30,116864.30598567516,194889505391252.94,0.0
383,1.9884285826808436e+30,116863.73517530785,137053448544656.86,0.0
384,1.9884285826709785e+30,116863.91835030097,170828076813732.97,0.0
385,1.9884285826808403e+30,116863.74567515038,133210664844292.53,0.0
386,1.9884285826794354e+30,116863.74014998296,149296225034381.1,0.0
387,1.9884285826807901e+30,116863.73737892431,136741925382732.28,0.0
388,1.9884285796212844e+30,116977.22091277604,358800920962378.5,0.0
389,1.9884285826704203e+30,116863.92668040408,173889382398969.72,0.0
390,1.988428582671371e+30,116863.94643080646,154789546771497.8,0.0
391,1.988428582679177e+30,116863.71687282874,161363889079420.44,0.0
392,1.9884285826748913e+30,116863.8878664239,139866484802112.66,0.0
393,1.9884285826743013e+30,116863.88680988931,146434013841767.3,0.0
394,1.9884285772602562e+30,117086.45256093385,146461297454995.62,0.0
395,1.9884285826770688e+30,116863.77060694981,162618469345307.56,0.0
396,1.9884285826793816e+30,116863.74159907948,149262720738105.75,0.0
397,1.988428582628955e+30,116865.03488282251,210743568674684.47,0.0
398,1.9884285822765814e+30,116876.2596360942,145576666120891.62,0.0
399,1.988428582674719e+30,116863.84231848075,159533962476479.66,0.0
400,1.988428580553323e+30,116939.18754185391,210911484565498.12,0.0
401,1.9884285826805858e+30,116863.74395891213,136264102834470.53,0.0
402,1.9884285826755553e+30,116863.82788568626,156115016683217.88,0.0
403,1.9884285826808377e+30,116863.74960249086,131712458219334.34,0.0
404,1.9884285826807277e+30,116863.73696688809,137493413355257.17,0.0
405,1.9884285825986594e+30,116865.9198073114,216587562875482.8,0.0
406,1.9884285826580678e+30,116864.29904935777,163519685884846.0,0.0
407,1.988428582677355e+30,116863.78852384494,152271845123760.94,0.0
408,1.9884285826024737e+30,116865.93217895692,160077462375284.12,0.0
409,1.988428582680848e+30,116863.74884731545,131987029064466.6,0.0
410,1.9884285826773137e+30,116863.81621417149,141982539621452.53,0.0
411,1.9884285826807882e+30,116863.72477618007,141487966496492.8,0.0
412,1.9884285826748842e+30,116863.89091764773,138801176175685.9,0.0
413,1.9884285826805275e+30,116863.72185261935,145183032883436.06,0.0
414,1.9884285826802455e+30,116863.72361860769,147353483416056.6,0.0
415,1.988428582680357e+30,116863.74839376009,136818940206527.12,0.0
416,1.9884285825976529e+30,116865.98204649205,201197910570813.8,0.0
417,1.988428582670391e+30,116863.93448122422,170924996908946.34,0.0
418,1.9884285824984678e+30,116869.09516930321,165628696171952.12,0.0
419,1.988428582660767e+30,116864.25307083417,151173746637534.28,0.0
420,1.9884285824035868e+30,116871.86094664069,278334971703479.7,0.0
421,1.9884285825995297e+30,116865.86479759164,231012366670905.38,0.0
422,1.988428582679968e+30,116863.70742525092,156644983269812.12,0.0
423,1.988428582679857e+30,116863.76227431347,136588745907363.0,0.0
424,1.9884285819878027e+30,116885.78668601083,231718594934464.94,0.0
425,1.9884285820825365e+30,116882.59077072616,211309203984729.3,0.0
426,1.988428581826373e+30,116891.52262636262,174506467455640.2,0.0
427,1.9884285826760056e+30,116863.83386994747,148867243076846.03,0.0
428,1.9884285826111988e+30,116865.61557285917,184368777653114.0,0.0
429,1.9884285826795776e+30,116863.73079113867,151469121296733.16,0.0
430,1.988428582675219e+30,116863.86423053725,145435943904362.5,0.0
431,1.9884285826808096e+30,116863.73789094361,136361568424522.45,0.0
432,1.9884285826693032e+30,116864.05607860195,134788127511458.34,0.0
433,1.9884285826801177e+30,116863.76165536734,134263107222239.45,0.0
434,1.988428581368922e+30,116907.64185211044,378902642663836.4,0.0
435,1.9884285826804355e+30,116863.72134805785,146297308903470.53,0.0
436,1.9884285826636123e+30,116864.12983463625,168600918446430.4,0.0
437,1.9884285823840744e+30,116872.6793492087,181417236182122.78,0.0
438,1.9884285826400776e+30,116864.74647112122,193896657559506.1,0.0
439,1.9884285823858092e+30,116872.60812436935,188304264617467.78,0.0
440,1.9884285826018446e+30,116865.97011324593,152396845256537.62,0.0
441,1.9884285826726803e+30,116863.95219291444,138586074846313.66,0.0
442,1.9884285826808467e+30,116863.73813865606,135928423258141.47,0.0
443,1.9884285826802483e+30,116863.71411942554,151038997984315.44,0.0
444,1.9884285826808445e+30,116863.74681209603,132728236310673.12,0.0
445,1.9884285826299307e+30,116865.17234908062,139783215271363.72,0.0
446,1.988428582672758e+30,116863.9283222111,146835564358884.47,0.0
447,1.988428582633076e+30,116864.92498008261,205658712639073.88,0.0
448,1.9884285826808408e+30,116863.75113573333,131157137670201.6,0.0
449,1.9884285826535442e+30,116864.33623261939,204111133862860.94,0.0
450,1.988428582643882e+30,116864.7869825276,132146684966785.48,0.0
451,1.988428582554539e+30,116867.29541400702,196427223909785.22,0.0
452,1.9884285818910966e+30,116889.01878266124,295258649965207.25,0.0
453,1.988428582668309e+30,116863.99748770574,168809427168823.62,0.0
454,1.9884285826804836e+30,116863.72583037004,144086289641497.0,0.0
455,1.9884285826803387e+30,116863.72324930059,146554141015021.2,0.0
456,1.9884285826262167e+30,116865.24350123182,154404359961216.8,0.0
457,1.9884285826801115e+30,116863.71482905603,152168290361298.16,0.0
458,1.9884285826808338e+30,116863.73779160771,136165658212538.9,0.0
459,1.9884285826765545e+30,116863.86489911086,131555467985757.6,0.0
460,1.9884285826709064e+30,116863.93759500499,163615455592375.06,0.0
461,1.9884285824939186e+30,116869.2968769981,141837821935978.75,0.0
462,1.9884285788617292e+30,117010.32723401666,387077675734737.0,0.0
463,1.98842858268084e+30,116863.74747443147,132485508426461.97,0.0
464,1.9884285826793507e+30,116863.7889446884,131744604734723.28,0.0
465,1.9884285826123444e+30,116865.53899106255,203857005749937.84,0.0
466,1.988428582680405e+30,116863.71263590895,150011628467018.66,0.0
467,1.988428582677729e+30,116863.8180241092,137089807368677.84,0.0
468,1.9884285826590966e+30,116864.32525792657,141589127336579.0,0.0
469,1.9884285821808422e+30,116879.20845848117,247250035186535.56,0.0
470,1.988428582620932e+30,116865.40767587246,150954837631293.44,0.0
471,1.988428582499166e+30,116869.06381685688,169655768414232.38,0.0
472,1.988428582675224e+30,116863.86233137724,146120655358299.8,0.0
473,1.9884285826581244e+30,116864.29133564212,166034029693738.84,0.0
474,1.9884285826778138e+30,116863.75201680874,161966211553248.7,0.0
475,1.9884285824594202e+30,116870.18793802882,225342913652086.62,0.0
476,1.9884285826808197e+30,116863.75045243574,131697147913404.27,0.0
477,1.9884285826623108e+30,116864.18105033148,162582816005977.3,0.0
478,1.988428582606438e+30,116865.68187339112,219513127910844.88,0.0
479,1.9884285826710714e+30,116863.89312556134,180592720888609.66,0.0
480,1.9884285826806747e+30,116863.74644070312,134496121926771.52,0.0
481,1.988428582680256e+30,116863.75458961104,135551390560874.84,0.0
482,1.9884285826804037e+30,116863.71684544445,148375350141323.84,0.0
483,1.988428582679658e+30,116863.73458924086,149136361323488.06,0.0
484,1.9884285826798956e+30,116863.74722090708,141859225420024.25,0.0
485,1.988428582679428e+30,116863.74788067417,146342355583035.88,0.0
486,1.9884285820859283e+30,116882.45917702066,219323061172472.0,0.0
487,1.988428582680842e+30,116863.74647950701,132848925088073.56,0.0
488,1.9884285826808397e+30,116863.73124967742,138560663091003.25,0.0
489,1.9884285826806652e+30,116863.71833155295,145144382084757.56,0.0
490,1.9884285826808248e+30,116863.73186079187,138452883567085.73,0.0
491,1.988428582680736e+30,116863.7413734998,135798471024643.2,0.0
492,1.9884285826760096e+30,116863.832094586,149522551088331.7,0.0
493,1.9884285826796232e+30,116863.72286512479,154121012144348.47,0.0
494,1.9884285826524667e+30,116864.46272867448,161960940300439.44,0.0
495,1.9884285825310381e+30,116868.16491036418,134862711749190.33,0.0
496,1.988428582677141e+30,116863.82736904814,139532440625223.38,0.0
497,1.9884285825351556e+30,116867.971887146,160564087724907.66,0.0
498,1.9884285821001706e+30,116881.90376407199,256818870567606.56,0.0
499,1.9884285826808428e+30,116863.75121554175,131128358457104.53,0.0
500,1.9884285826805906e+30,116863.7568497437,131502047544544.31,0.0
501,1.9884285826808462e+30,116863.74383507819,133831501974589.7,0.0
502,1.9884285826808433e+30,116863.74668608303,132772934331859.56,0.0
503,1.9884285826802534e+30,116863.75542290066,135246417031591.25,0.0
504,1.9884285825567278e+30,116867.18188765677,218668082787064.78,0.0
505,1.9884285826647407e+30,116864.09295766776,170742155246318.7,0.0
506,1.988428582679023e+30,116863.75193670772,148989236349796.44,0.0
507,1.9884285826808383e+30,116863.7439447536,133830323896149.95,0.0
508,1.98842858237635e+30,116872.99345892701,153945120695438.72,0.0
509,1.9884285825331754e+30,116868.06544097864,147580115217047.75,0.0
510,1.9884285821196428e+30,116881.13618099652,319986634017866.4,0.0
511,1.988428582640217e+30,116864.73357228652,197953190911911.12,0.0
512,1.9884285826741302e+30,116863.83088105779,170995533156725.44,0.0
513,1.988428582680841e+30,116863.750159854,131511935198535.64,0.0
514,1.9884285826808442e+30,116863.74219440427,134469957825224.44,0.0
515,1.9884285825161853e+30,116868.57974835552,151551566842760.12,0.0
516,1.9884285826802627e+30,116863.71582627531,150200014860356.66,0.0
517,1.9884285826807719e+30,116863.73116943108,139222772531575.3,0.0
518,1.9884285816449017e+30,116898.02013396946,152604231004502.7,0.0
519,1.9884285826678417e+30,116864.09418565394,135780553780832.97,0.0
520,1.98842858268083e+30,116863.74829055407,132346589069402.88,0.0
521,1.9884285826808405e+30,116863.7476339197,132427462034157.2,0.0
522,1.9884285826800775e+30,116863.75425985399,137405142601519.4,0.0
523,1.9884285820388907e+30,116884.26465490607,132420612053021.97,0.0
524,1.9884285824743665e+30,116869.85953281872,161130514809374.0,0.0
525,1.9884285826207842e+30,116865.41779207296,148699247684519.75,0.0
526,1.9884285816797176e+30,116896.6777437455,193047947420653.5,0.0
527,1.9884285826806435e+30,116863.73207264306,140133962067055.4,0.0
528,1.9884285826808453e+30,116863.74471655503,133502107637265.81,0.0
529,1.9884285800345333e+30,116960.20092482069,200551865400905.62,0.0
530,1.988428582634441e+30,116865.02260743831,146622477317882.38,0.0
531,1.988428582233963e+30,116877.54974566889,194045439945360.06,0.0
532,1.9884285826807077e+30,116863.72700615997,141421369490851.44,0.0
533,1.9884285826804313e+30,116863.74707279056,136611703900689.44,0.0
534,1.9884285826808146e+30,116863.72933902872,139509243781701.81,0.0
535,1.9884285821685794e+30,116879.68984065199,211391062592841.0,0.0
536,1.9884285823552722e+30,116873.48883622215,238007466400970.56,0.0
537,1.9884285826490074e+30,116864.46978870261,202518098250715.5,0.0
538,1.988428582680846e+30,116863.74969030007,131681503229125.12,0.0
539,1.9884285826808442e+30,116863.74930045861,131841909129237.38,0.0
540,1.9884285826808445e+30,116863.73402174487,137486064390117.72,0.0
541,1.9884285826732658e+30,116863.88992051502,156454817187988.8,0.0
542,1.9884285821810865e+30,116879.19883880444,248027772750226.38,0.0
543,1.988428582680742e+30,116863.71555718903,145459838187287.6,0.0
544,1.9884285826793664e+30,116863.7664908445,139886575092627.19,0.0
545,1.9884285826808436e+30,116863.74934736002,131806763833207.55,0.0
546,1.9884285826686825e+30,116864.05703227424,140882140880116.22,0.0
547,1.9884285826808332e+30,116863.73705896766,136464250062242.53,0.0
548,1.988428582565054e+30,116867.02760760032,173190105777738.53,0.0
549,1.98842858267222e+30,116863.96451531792,138726393631128.62,0.0
550,1.98842858266111e+30,116864.20290487426,167604834063155.78,0.0
551,1.9884285826314045e+30,116865.06030014368,167130969936168.8,0.0
552,1.9884285813396323e+30,116908.80663780619,325907345353805.1,0.0
553,1.9884285826803564e+30,116863.76237513953,131721461486545.16,0.0
554,1.9884285826808394e+30,116863.73717123296,136334013549671.1,0.0
555,1.988428582619254e+30,116865.29866057725,221215237538703.47,0.0
556,1.988428582680845e+30,116863.74996237886,131582641994492.55,0.0
557,1.9884285825577966e+30,116867.12554935798,230530390507155.47,0.0
558,1.9884285810356542e+30,116920.25216858771,309027003021116.5,0.0
559,1.9884285826766817e+30,116863.79587357915,156638282524708.75,0.0
560,1.9884285826808372e+30,116863.7505027498,131386201838293.22,0.0
561,1.988428582645285e+30,116864.65711727916,167021526903572.5,0.0
562,1.9884285825530683e+30,116867.37032300186,182900893754902.28,0.0
563,1.9884285826794683e+30,116863.76362248008,139950928213180.62,0.0
564,1.9884285826797864e+30,116863.77074395443,134148581490764.81,0.0
565,1.9884285825337107e+30,116868.04031038452,150967475987945.25,0.0
566,1.9884285826662722e+30,116864.11576430858,144218237218615.22,0.0
567,1.9884285826627704e+30,116864.10734862104,188731769801162.94,0.0
568,1.9884285826808436e+30,116863.74052710208,135037243173023.34,0.0
569,1.9884285823460866e+30,116873.86466967012,199509498273231.75,0.0
570,1.9884285826786735e+30,116863.80873353842,131157661247566.0,0.0
571,1.9884285818945596e+30,116888.88344869824,303914876291927.4,0.0
572,1.9884285826805157e+30,116863.74863523236,135220770357635.0,0.0
573,1.9884285826808448e+30,116863.75099752897,131208428485898.03,0.0
574,1.9884285826761557e+30,116863.86606302955,135116395758821.69,0.0
575,1.9884285825912707e+30,116866.10407967558,235077796649082.66,0.0
576,1.988428582680473e+30,116863.73653278565,140134724128611.08,0.0
577,1.9884285825957867e+30,116866.09459507484,175738343720224.47,0.0
578,1.9884285826808433e+30,116863.74387628856,133840435257515.78,0.0
579,1.988428582680844e+30,116863.74595434805,133039641901765.67,0.0
580,1.9884285826660333e+30,116864.0098816061,191231526120153.88,0.0
581,1.9884285826803387e+30,116863.71978312505,147889690422318.9,0.0
582,1.9884285825870407e+30,116866.35293614348,177498726641684.75,0.0
583,1.9884285826432617e+30,116864.65472098143,193639232627097.47,0.0
584,1.988428582680692e+30,116863.71745511178,145235165824839.56,0.0
585,1.988428582680475e+30,116863.7254601882,144320051749748.8,0.0
586,1.9884285826808433e+30,116863.74729793122,132601385081459.14,0.0
587,1.988428582643758e+30,116864.60620583953,209630451236136.3,0.0
588,1.9884285826808335e+30,116863.75077494176,131462942385564.0,0.0
589,1.988428582680844e+30,116863.74518310951,133321354665661.47,0.0
590,1.9884285826739672e+30,116863.89094778687,148392939727723.7,0.0
591,1.9884285826807876e+30,116863.7202201851,143217536815057.9,0.0
592,1.988428582632035e+30,116865.01044449273,180595241165729.78,0.0
593,1.9884285826299988e+30,116865.16735927724,140918958613064.8,0.0
594,1.9884285819278057e+30,116888.0870524127,132954441903610.53,0.0
595,1.9884285826806342e+30,116863.7363656102,138616395698910.23,0.0
596,1.9884285826759488e+30,116863.86215446885,138669963693081.14,0.0
597,1.9884285826789068e+30,116863.72146364745,162440091034735.1,0.0
598,1.988428582680814e+30,116863.73140516377,138709508205561.42,0.0
599,1.988428582601163e+30,116866.01053056332,144564642866299.25,0.0
600,1.9884285826053929e+30,116865.74996722717,201749373944652.22,0.0
601,1.9884285826752468e+30,116863.85272002693,149617208890737.2,0.0
602,1.9884285826807783e+30,116863.73899142124,136242704968377.5,0.0
603,1.988428582620816e+30,116865.41557001518,149192295383874.38,0.0
604,1.9884285826463804e+30,116864.54772176853,201464763206830.3,0.0
605,1.9884285809407166e+30,116924.07373847601,207351354891820.88,0.0
606,1.9884285826806035e+30,116863.72087184295,144769624087332.03,0.0
607,1.9884285825115035e+30,116868.48889696362,262289943338152.5,0.0
608,1.9884285826807628e+30,116863.73629559501,137403619117767.0,0.0
609,1.988428582678804e+30,116863.75404296798,150453984714780.5,0.0
610,1.9884285826755246e+30,116863.84187696647,150887184355553.3,0.0
611,1.9884285826599602e+30,116864.20547643854,180458843072666.56,0.0
612,1.988428582671356e+30,116863.95055641391,153315208584655.53,0.0
613,1.9884285826807268e+30,116863.73420237718,138522804569601.89,0.0
614,1.9884285826808487e+30,116863.7497007904,131677271624758.14,0.0
615,1.9884285826698104e+30,116863.9389221036,175932434453511.12,0.0
616,1.988428582677321e+30,116863.81162852308,143655638953958.1,0.0
617,1.9884285825788135e+30,116866.55481456958,198113596253867.6,0.0
618,1.9884285826570407e+30,116864.26139343233,192535541711486.38,0.0
619,1.9884285826802401e+30,116863.74473594442,139356352634487.08,0.0
620,1.9884285826746076e+30,116863.88652061253,143327263200938.06,0.0
621,1.9884285826808493e+30,116863.73892609158,135634000513120.36,0.0
622,1.9884285826806503e+30,116863.71161662455,147896804097967.94,0.0
623,1.988428582635453e+30,116864.9409419543,167618032340552.53,0.0
624,1.9884285826758998e+30,116863.77463176617,174299830732737.2,0.0
625,1.9884285826808473e+30,116863.74772212001,132398123939063.7,0.0
626,1.9884285826808166e+30,116863.73589798063,137035758450035.19,0.0
627,1.9884285826808498e+30,116863.7510139634,131211108416511.12,0.0
628,1.9884285826099547e+30,116865.696319827,165532519256028.5,0.0
629,1.9884285826754385e+30,116863.87939447447,137419114838166.61,0.0
630,1.9884285826627262e+30,116864.11440178794,186111721769885.25,0.0
631,1.988428582680777e+30,116863.74822987703,132863463567073.69,0.0
632,1.988428581915444e+30,116888.06408020352,362374291315613.6,0.0
633,1.9884285816684595e+30,116897.11248558816,178820507816021.62,0.0
634,1.9884285826808467e+30,116863.74740201455,132531336684326.92,0.0
635,1.9884285821531777e+30,116880.28814753324,174224122803711.25,0.0
636,1.988428582680843e+30,116863.73584420535,136799205337015.31,0.0
637,1.9884285825094352e+30,116868.58823763461,243450394973754.56,0.0
638,1.9884285826764687e+30,116863.80848871033,153897581488627.12,0.0
639,1.9884285823248155e+30,116874.71285790924,134210943142459.88,0.0
640,1.9884285826717008e+30,116863.98449936691,136615906950072.16,0.0
641,1.9884285826805464e+30,116863.72610329735,143337397235311.28,0.0
642,1.9884285824476613e+30,116870.69646537467,162830210868609.38,0.0
643,1.9884285826808403e+30,116863.74985655483,131620514731431.02,0.0
644,1.9884285826807868e+30,116863.7355414744,137480233490233.7,0.0
645,1.9884285826760647e+30,116863.80421216022,160053211709090.5,0.0
646,1.9884285826808262e+30,116863.75070153926,131314222173160.88,0.0
647,1.988428582680649e+30,116863.73851186101,137686734931065.08,0.0
648,1.9884285826098697e+30,116865.7018573113,164302416939292.22,0.0
649,1.988428582679605e+30,116863.75621575661,141357851344383.62,0.0
650,1.9884285826752803e+30,116863.83795283179,155091930697324.3,0.0
651,1.9884285826789887e+30,116863.79287651106,133845424325764.72,0.0
652,1.9884285826807375e+30,116863.73499447767,138103582470920.4,0.0
653,1.9884285825843667e+30,116866.50184475673,149303109123040.28,0.0
654,1.9884285826807547e+30,116863.73139583011,139307312333520.67,0.0
655,1.988428582665451e+30,116864.11889372481,151966026118277.38,0.0
656,1.988428582236031e+30,116877.46850120938,199948815761301.06,0.0
657,1.9884285824653833e+30,116869.92120471045,266915747828637.75,0.0
658,1.9884285826449775e+30,116864.68649982072,158580103823313.88,0.0
659,1.988428582671851e+30,116863.94362217734,150645619730305.62,0.0
660,1.988428582679369e+30,116863.76184563957,141608230625250.72,0.0
661,1.9884285826227176e+30,116865.2817298755,181471581882658.06,0.0
662,1.9884285826748676e+30,116863.89665128196,136813328636410.36,0.0
663,1.9884285825688732e+30,116866.82455423444,212803149205430.53,0.0
664,1.988428582679756e+30,116863.7644286487,136788656486158.7,0.0
665,1.9884285825214075e+30,116868.33765341257,185319886210018.53,0.0
666,1.988428582591258e+30,116866.10484866935,234877618012205.4,0.0
667,1.9884285826642172e+30,116864.1819920749,140998227733791.22,0.0
668,1.988428582621627e+30,116865.35944715902,162099510442382.3,0.0
669,1.9884285826805807e+30,116863.72646937084,142868337469259.75,0.0
670,1.9884285826479778e+30,116864.57858370658,167388434130381.75,0.0
671,1.9884285826804437e+30,116863.738264262,139779263210136.84,0.0
672,1.9884285826800448e+30,116863.70566311083,156521529014535.44,0.0
673,1.9884285826392636e+30,116864.81922671356,172198090845248.7,0.0
674,1.9884285826807955e+30,116863.74630744554,133392564189941.92,0.0
675,1.9884285826619955e+30,116864.22880917048,147052958820067.75,0.0
676,1.988428582268812e+30,116876.15476180614,325775293535006.3,0.0
677,1.988428582679381e+30,116863.74257186758,148889321485179.56,0.0
678,1.988428582680304e+30,116863.75010410826,136736185068940.4,0.0
679,1.9884285826797436e+30,116863.71418854628,156312856644701.9,0.0
680,1.9884285826808445e+30,116863.74671084146,132776030273209.6,0.0
681,1.9884285822480246e+30,116876.99358211353,238367829779128.44,0.0
682,1.9884285826769252e+30,116863.75546745861,170570734874912.66,0.0
683,1.9884285826807572e+30,116863.72639088589,141173701172929.84,0.0
684,1.9884285797269754e+30,116972.58916386527,468221733294780.5,0.0
685,1.9884285826808467e+30,116863.74899914896,131942406995135.9,0.0
686,1.988428582680843e+30,116863.74790990085,132344069228493.92,0.0
687,1.988428582666556e+30,116864.06253741604,162175934410799.22,0.0
688,1.9884285826682032e+30,116864.02038001818,160552067472877.94,0.0
689,1.9884285792561297e+30,116993.35968420212,147505808398655.5,0.0
690,1.98842858249171e+30,116869.39324866657,131672931499013.6,0.0
691,1.98842858268057e+30,116863.72308212351,144283938221670.25,0.0
692,1.988428582680762e+30,116863.73181941056,139087267076888.88,0.0
693,1.9884285826805847e+30,116863.70844113469,149809269208547.66,0.0
694,1.9884285825443488e+30,116867.51791684613,240074925191620.0,0.0
695,1.9884285818416516e+30,116890.93535803519,197115232362429.25,0.0
696,1.9884285826229676e+30,116865.26356867455,186259852052810.62,0.0
697,1.988428582631111e+30,116865.08320409612,161219477734360.25,0.0
698,1.9884285826808307e+30,116863.73531200398,137131752712659.86,0.0
699,1.9884285825101302e+30,116868.55496619594,249614095249138.2,0.0
700,1.9884285826742214e+30,116863.91633742962,136113274779341.62,0.0
701,1.9884285826767242e+30,116863.77075455376,166453644353587.12,0.0
702,1.9884285815185794e+30,116902.3928300436,239008662708459.38,0.0
703,1.9884285826498133e+30,116864.57154249643,148892341101807.56,0.0
704,1.9884285826752347e+30,116863.85786276589,147739792695428.53,0.0
705,1.98842858268079e+30,116863.7404354759,135620906008628.38,0.0
706,1.9884285826808448e+30,116863.74718240615,132615434096615.25,0.0
707,1.9884285794149435e+30,116986.31160705439,215937973550238.12,0.0
708,1.9884285826808048e+30,116863.75114689773,131565004721646.97,0.0
709,1.988428569725069e+30,117586.41616824365,372913884785324.0,0.0
710,1.988428582658555e+30,116864.23261049458,186085707289444.3,0.0
711,1.988428582680837e+30,116863.74957562391,131722118552184.67,0.0
712,1.98842858258143e+30,116866.4059326549,232080144662225.56,0.0
713,1.9884285826807994e+30,116863.74014004025,135613370648702.27,0.0
714,1.9884285825278186e+30,116868.02855913657,238758945349812.8,0.0
715,1.9884285825653995e+30,116867.00959966521,176413220570509.56,0.0
716,1.9884285826756524e+30,116863.78157393423,174229875066326.56,0.0
717,1.988428582680231e+30,116863.71651212264,150284445896703.16,0.0
718,1.9884285826724824e+30,116863.88656649675,166691370886268.7,0.0
719,1.9884285826791956e+30,116863.77127829398,139790769384100.28,0.0
720,1.9884285826658652e+30,116864.04264934068,178781898311462.66,0.0
721,1.9884285825851e+30,116866.46159558138,156503964503862.75,0.0
722,1.9884285826808366e+30,116863.75006237863,131663256792561.34,0.0
723,1.9884285826808414e+30,116863.73947721362,135462016169708.08,0.0
724,1.9884285826806874e+30,116863.72124964697,143815536319305.3,0.0
725,1.988428582671101e+30,116863.88511454557,183768374341246.25,0.0
726,1.9884285826807938e+30,116863.74443335613,134109012485983.78,0.0
727,1.9884285826804853e+30,116863.72090535075,145970154871137.47,0.0
728,1.9884285826001386e+30,116866.07041677886,133600239545325.75,0.0
729,1.9884285826788896e+30,116863.7424124197,154148891314155.12,0.0
730,1.9884285826795567e+30,116863.77101194166,136331222206457.77,0.0
731,1.988428582670425e+30,116863.9254252776,174369473910027.34,0.0
732,1.9884285826735047e+30,116863.93119408758,137908320194784.56,0.0
733,1.988428582680447e+30,116863.7206504401,146459485766716.62,0.0
734,1.9884285826795094e+30,116863.77246239333,136244117675078.88,0.0
735,1.9884285824751336e+30,116869.82615121428,164957303721827.53,0.0
736,1.988428582622745e+30,116865.27977268139,181982742744009.0,0.0
737,1.988428582671051e+30,116863.89911610003,178241578126514.3,0.0
738,1.988428582651515e+30,116864.56559659826,132707721291293.95,0.0
739,1.9884285821523037e+30,116880.32191432088,172341521613628.56,0.0
740,1.9884285826774358e+30,116863.83173628835,134938193967132.16,0.0
741,1.9884285826808355e+30,116863.73205780405,138276695310385.36,0.0
742,1.9884285824063475e+30,116871.74180908494,296194068986026.0,0.0
743,1.988428581940048e+30,116887.6212220204,148563682414646.56,0.0
744,1.9884285826808453e+30,116863.7464287506,132867877713537.56,0.0
745,1.9884285826804898e+30,116863.74926891777,135234524660521.9,0.0
746,1.9884285825813664e+30,116866.40965507478,231172428133578.0,0.0
747,1.9884285825220765e+30,116868.30600108129,190227170485770.7,0.0
748,1.988428582680847e+30,116863.73918725162,135545661349485.62,0.0
749,1.988428581736822e+30,116894.46029925087,287044003548279.25,0.0
750,1.9884285826740888e+30,116863.84640180822,164958387294732.2,0.0
751,1.9884285826804763e+30,116863.71524171719,148248543590207.62,0.0
752,1.9884285826806728e+30,116863.71762620323,145340232030565.88,0.0
753,1.9884285826735396e+30,116863.91952357233,141929053134199.16,0.0
754,1.9884285825546097e+30,116867.29175047924,197111568611586.62,0.0
755,1.988428582669766e+30,116863.94947718983,171924870403647.56,0.0
756,1.9884285826807947e+30,116863.72299046838,142078032233296.97,0.0
757,1.9884285826808417e+30,116863.73775986834,136103341159668.95,0.0
758,1.988428582680831e+30,116863.74924507384,131842020901457.0,0.0
759,1.9884285826797194e+30,116863.76134696142,138278522414023.95,0.0
760,1.9884285826803133e+30,116863.71231896171,151086043987458.84,0.0
761,1.9884285825305208e+30,116868.18876403602,131970793602229.48,0.0
762,1.9884285826778971e+30,116863.78379845583,148360595562182.97,0.0
763,1.988428582661549e+30,116864.13539503087,191635774421503.4,0.0
764,1.9884285826807772e+30,116863.74850334386,132753109139317.45,0.0
765,1.988428582680848e+30,116863.75049256878,131392552902921.69,0.0
766,1.9884285826808217e+30,116863.74854094544,132364557584560.78,0.0
767,1.9884285826808467e+30,116863.74666875206,132781724217346.39,0.0
768,1.9884285825617586e+30,116867.19593587074,145547709878374.7,0.0
769,1.9884285826791328e+30,116863.77531802266,138914293327797.44,0.0
770,1.988428582670786e+30,116863.96924862637,152191707706136.8,0.0
771,1.9884285826760284e+30,116863.82295619836,152924354032790.5,0.0
772,1.9884285826790442e+30,116863.72397847769,159906619008418.06,0.0
773,1.9884285826802562e+30,116863.74845726856,137808524324179.61,0.0
774,1.988428582680838e+30,116863.74768907126,132407353018788.81,0.0
775,1.9884285826740302e+30,116863.86833627537,156661393756476.6,0.0
776,1.9884285826805464e+30,116863.73974080256,138209854290004.97,0.0
777,1.9884285811139237e+30,116917.09418061915,433660448133891.5,0.0
778,1.9884285826727076e+30,116863.94343692913,141576177082350.8,0.0
779,1.9884285826805647e+30,116863.75274361593,133227524435249.81,0.0
780,1.9884285826807901e+30,116863.74042747819,135606278318012.67,0.0
781,1.9884285823878864e+30,116872.52246884233,196935139654097.16,0.0
782,1.9884285826723223e+30,116863.93452516093,149092031582499.62,0.0
783,1.9884285814771384e+30,116904.01036316414,187655757707602.94,0.0
784,1.9884285826771892e+30,116863.7974416151,150533049848417.3,0.0
785,1.9884285826350325e+30,116864.97532471322,158507686297557.47,0.0
786,1.9884285826803297e+30,116863.75233886867,135632110464386.73,0.0
787,1.9884285826808267e+30,116863.73741027234,136379040508173.95,0.0
788,1.9884285825097457e+30,116868.57339225808,246182707340266.75,0.0
789,1.9884285826808476e+30,116863.7466686331,132789363088766.19,0.0
790,1.9884285826774516e+30,116863.82189004503,138440327494505.14,0.0
791,1.9884285826808245e+30,116863.73369008656,137812429342497.64,0.0
792,1.9884285826784522e+30,116863.7661046174,149439450570530.7,0.0
793,1.9884285816070844e+30,116898.91222517818,407916558767991.1,0.0
794,1.9884285826805647e+30,116863.74585051143,135749710739945.03,0.0
795,1.988428582680777e+30,116863.7478856659,133011128404875.38,0.0
796,1.988428582674993e+30,116863.84665852101,154766041345040.06,0.0
797,1.9884285826771935e+30,116863.79458483623,151610402217802.84,0.0
798,1.98842858268083e+30,116863.73049047738,138929468762173.33,0.0
799,1.9884285826162325e+30,116865.51034850162,165537603014164.72,0.0
800,1.9884285826597206e+30,116864.2398727058,168610643137058.9,0.0
801,1.9884285821900363e+30,116878.84431369096,278530045459295.8,0.0
802,1.9884285824158116e+30,116871.71000911876,161819490517137.06,0.0
803,1.9884285826806066e+30,116863.71604774432,146622676185405.88,0.0
804,1.9884285826808394e+30,116863.73105914587,138640865442924.73,0.0
805,1.9884285826807203e+30,116863.73256895391,139202268629506.95,0.0
806,1.9884285826806663e+30,116863.74449475983,135280915528617.84,0.0
807,1.988428579011677e+30,117003.45173369182,530628040621932.5,0.0
808,1.9884285826806306e+30,116863.73702296648,138417477002921.11,0.0
809,1.9884285826379226e+30,116864.93312177756,142062132559390.4,0.0
810,1.988428582679554e+30,116863.77214161205,135919984500602.88,0.0
811,1.9884285826790166e+30,116863.7595566938,146095208069042.75,0.0
812,1.9884285824147318e+30,116871.75465245897,157679196685562.6,0.0
813,1.9884285826617627e+30,116864.2631733274,136542260654940.23,0.0
814,1.9884285826805273e+30,116863.71914809191,146220959756723.8,0.0
815,1.9884285826801126e+30,116863.71210127998,153239878573632.75,0.0
816,1.9884285826807856e+30,116863.72334210036,142050446828567.75,0.0
817,1.988428582680825e+30,116863.74373485713,134073912301026.27,0.0
818,1.9884285826808448e+30,116863.74643102725,132905439890801.2,0.0
819,1.9884285823893383e+30,116872.46232235698,203231531550553.4,0.0
820,1.9884285826587763e+30,116864.20140870249,197408665956928.3,0.0
821,1.9884285826801602e+30,116863.76137788674,133962138704320.19,0.0
822,1.9884285826598904e+30,116864.21571405388,176873076542597.0,0.0
823,1.988428582680848e+30,116863.74892437471,131960384382459.17,0.0
824,1.9884285826807026e+30,116863.73910686039,136921472035090.16,0.0
825,1.9884285826537795e+30,116864.48664731706,137892282780719.48,0.0
826,1.9884285826802033e+30,116863.741522929,140910166530369.6,0.0
827,1.9884285826807662e+30,116863.73073478231,139437245623438.4,0.0
828,1.988428582674936e+30,116863.87002622454,146199409011287.7,0.0
829,1.9884285807820388e+30,116929.77066191204,477972199681106.0,0.0
830,1.9884285826788733e+30,116863.76204850056,146617232587048.3,0.0
831,1.9884285826762128e+30,116863.83705377317,145441979960176.88,0.0
832,1.9884285826807277e+30,116863.74039797511,136200485107985.44,0.0
833,1.9884285826722477e+30,116863.95604848005,141603670173564.75,0.0
834,1.9884285824045013e+30,116871.82157913293,284115639229415.9,0.0
835,1.9884285826222045e+30,116865.31866278213,172042787052177.2,0.0
836,1.9884285817882147e+30,116892.44207810482,415511717285729.9,0.0
837,1.988428115494201e+30,116327.62264409682,2.367295977557616e+22,0.0
838,1.9884285826611373e+30,116864.19869622211,169037795848908.12,0.0
839,1.9884285826807583e+30,116863.74794775047,133159001340110.28,0.0
840,1.988428582174474e+30,116879.45903000272,227857760653354.3,0.0
841,1.9884285826807524e+30,116863.73711538983,137174732044931.2,0.0
842,1.9884285826756392e+30,116863.78776181006,171736690567277.56,0.0
843,1.9884285825983878e+30,116865.9366580385,212325099953497.94,0.0
844,1.9884285826719485e+30,116863.91573837616,160735007886274.84,0.0
845,1.9884285826719375e+30,116863.91877762708,159614564975382.47,0.0
846,1.9884285826808464e+30,116863.7431202019,134078393014166.56,0.0
847,1.9884285826807665e+30,116863.74620409237,133724151303566.06,0.0
848,1.9884285826626998e+30,116864.11879238326,184493486163213.62,0.0
849,1.9884285826806407e+30,116863.7549039455,131719682933463.05,0.0
850,1.9884285826808372e+30,116863.74306852343,134216875341395.25,0.0
851,1.9884285826651722e+30,116864.1670839754,136516766768146.81,0.0
852,1.9884285826324606e+30,116864.97601845357,190383359675720.53,0.0
853,1.9884285826775256e+30,116863.77062295261,157586037769740.8,0.0
854,1.9884285826808495e+30,116863.74104253949,134848235356641.88,0.0
855,1.988428582680709e+30,116863.71271286422,146883109466375.78,0.0
856,1.988428582673427e+30,116863.8347910579,177632424197155.8,0.0
857,1.9884285826598968e+30,116864.21465941156,177240133934901.2,0.0
858,1.9884285826808473e+30,116863.7434298329,133965661182663.77,0.0
859,1.9884285826777634e+30,116863.79099440044,146966706310996.9,0.0
860,1.9884285826794455e+30,116863.72023630343,157071402523321.3,0.0
861,1.9884285826252118e+30,116865.31519456,138135061653646.44,0.0
862,1.9884285824253274e+30,116871.31131591236,203939933938838.1,0.0
863,1.9884285826668245e+30,116864.00903894217,181692306451443.3,0.0
864,1.9884285793301483e+30,116990.06876625655,176004751417050.25,0.0
865,1.9884285826808312e+30,116863.75046004386,131401659510363.45,0.0
866,1.9884285825296212e+30,116867.93903244083,256726626751566.06,0.0
867,1.9884285826807488e+30,116863.72364645965,142296148780803.06,0.0
868,1.9884285826792344e+30,116863.71902907907,159852688064902.75,0.0
869,1.9884285826480338e+30,116864.5728489039,169117524131972.62,0.0
870,1.988428582647966e+30,116864.57976391734,167034238916123.34,0.0
871,1.9884285826724112e+30,116863.907996062,158669970828456.8,0.0
872,1.9884285826796597e+30,116863.73381480962,149434850820630.9,0.0
873,1.9884285826748043e+30,116863.80650042997,173486553166052.0,0.0
874,1.9884285826783013e+30,116863.81533516002,132394202144937.94,0.0
875,1.9884285826793518e+30,116863.78805207505,132062605568601.66,0.0
876,1.988428581687874e+30,116896.36233441455,204124927749715.62,0.0
877,1.9884285826151997e+30,116865.57868162678,150265656672576.12,0.0
878,1.9884285826791475e+30,116863.75581294557,146178698133850.4,0.0
879,1.9884285826807437e+30,116863.72627179208,141320189420896.7,0.0
880,1.9884285826808484e+30,116863.74702017149,132650964129658.06,0.0
881,1.9884285825977851e+30,116865.97395654,203143892517189.56,0.0
882,1.9884285386088505e+30,116124.1247674336,2.541106609011145e+21,1.0
883,1.9884285824927784e+30,116869.34676079664,136484717747342.88,0.0
884,1.988428581707096e+30,116895.61739283208,233071067126200.56,0.0
885,1.9884285826646926e+30,116864.10133451952,167775635866459.2,0.0
886,1.988428581538993e+30,116901.59355370133,269767795270668.12,0.0
887,1.9884285823146483e+30,116874.74019487857,274454916051361.5,0.0
888,1.988428582665303e+30,116864.14469689284,143552703448189.25,0.0
889,1.9884285826686166e+30,116864.07096699021,136366342955379.19,0.0
890,1.9884285826639543e+30,116864.07109305778,189993390351546.06,0.0
891,1.9884285826797172e+30,116863.77151402114,134565149855477.38,0.0
892,1.9884285826713993e+30,116863.93896439538,157481281204810.12,0.0
893,1.9884285826805425e+30,116863.70849461014,150198711926024.1,0.0
894,1.988428582677686e+30,116863.75196290894,163421277668924.8,0.0
895,1.9884285826803753e+30,116863.732135088,142766151019105.88,0.0
896,1.9884285817990388e+30,116892.5685882575,140801225232362.06,0.0
897,1.988428582538117e+30,116867.82935344751,182415426897992.8,0.0
898,1.9884285820131785e+30,116884.7979168226,295806786320220.0,0.0
899,1.9884285826126453e+30,116865.51840562194,209377690260489.12,0.0
900,1.988428582666102e+30,116864.14636579539,134533017526567.72,0.0
901,1.9884285826800822e+30,116863.73865345943,143228274086486.47,0.0
902,1.988428582647223e+30,116864.6536244297,145964072658964.7,0.0
903,1.9884285826600072e+30,116864.19850173315,182930816583440.9,0.0
904,1.988428582680846e+30,116863.74912659546,131885511390209.98,0.0
905,1.9884285825263828e+30,116868.09905078188,225439055811185.56,0.0
906,1.9884285826748178e+30,116863.80072026333,175808087130489.62,0.0
907,1.9884285826808425e+30,116863.74384886863,133874471854619.4,0.0
908,1.9884285826103693e+30,116865.66970954809,171552531372833.75,0.0
909,1.9884285826776092e+30,116863.80868866415,141798368983176.06,0.0
910,1.9884285826748406e+30,116863.90810977551,132895209096491.14,0.0
911,1.988428582653205e+30,116864.37720997758,189675869296421.56,0.0
912,1.9884285826759845e+30,116863.8444033239,145016410675130.5,0.0
913,1.98842858268084e+30,116863.74902966717,131985694742297.11,0.0
914,1.9884285826808324e+30,116863.74871411787,132034758004400.75,0.0
915,1.9884285826808366e+30,116863.7350721653,137150788251454.67,0.0
916,1.9884285826425003e+30,116864.72668585752,171643883026099.75,0.0
917,1.9884285826736016e+30,116863.89911310752,149140759237429.2,0.0
918,1.98842858267105e+30,116863.89932539898,178159796980207.34,0.0
919,1.988428582634852e+30,116864.98994510491,154754154363595.94,0.0
920,1.98842858268083e+30,116863.75091517095,131400075724266.17,0.0
921,1.9884285826808473e+30,116863.7414750814,134684561385999.56,0.0
922,1.988428582680825e+30,116863.75049554998,131388792122574.48,0.0
923,1.9884285826808445e+30,116863.73677624375,136445131233212.17,0.0
924,1.9884285818357958e+30,116891.16068427957,188092381381659.44,0.0
925,1.988428582460741e+30,116870.12938336153,233894770356577.28,0.0
926,1.9884285806878032e+30,116933.65061239374,339130077366701.25,0.0
927,1.9884285826808476e+30,116863.74129588106,134753172572396.03,0.0
928,1.988428582670087e+30,116864.0090890505,144238461356476.3,0.0
929,1.9884285826807938e+30,116863.72151020817,142647954828035.56,0.0
930,1.9884285816196149e+30,116898.41566044641,440923922149876.0,0.0
931,1.9884285826783534e+30,116863.76843739641,149565731989687.34,0.0
932,1.9884285826522103e+30,116864.49126838644,153410718088706.2,0.0
933,1.988428582616542e+30,116865.48946339988,170454960989017.12,0.0
934,1.9884285826408528e+30,116864.87230161174,133031111824155.05,0.0
935,1.9884285826183607e+30,116865.36317111285,202830490954024.75,0.0
936,1.9884285826808473e+30,116863.74834800238,132179803841009.4,0.0
937,1.9884285826808017e+30,116863.73549803415,137312173091626.84,0.0
938,1.9884285826781012e+30,116863.80518187297,138106022957420.03,0.0
939,1.9884285826808453e+30,116863.7453034839,133279570089946.12,0.0
940,1.9884285826765737e+30,116863.85577483596,134714789849339.78,0.0
941,1.9884285826159926e+30,116865.5263990976,161839107616160.94,0.0
942,1.9884285826338066e+30,116865.07197010807,134980716371784.42,0.0
943,1.9884285821684964e+30,116879.693074946,211169316544320.62,0.0
944,1.988428582680845e+30,116863.74013859508,135206847532949.19,0.0
945,1.9884285792560557e+30,116993.36295969828,147480042099695.12,0.0
946,1.9884285826792198e+30,116863.73879813575,152068844530672.97,0.0
947,1.9884285826808065e+30,116863.74260017897,134652576692698.1,0.0
948,1.9884285826807294e+30,116863.73125383993,139603835727693.16,0.0
949,1.9884285825920844e+30,116866.30708719417,135196449722757.28,0.0
950,1.988428582680758e+30,116863.73773576123,136913422146652.53,0.0
951,1.988428582680415e+30,116863.71651057212,148387426283924.62,0.0
952,1.988428582680792e+30,116863.72152536939,142675389232580.53,0.0
953,1.9884285813524022e+30,116908.29916014074,347950780602296.4,0.0
954,1.9884285825949065e+30,116866.14642286413,164982510359679.62,0.0
955,1.9884285730751174e+30,117326.21680657992,786233164908646.0,0.0
956,1.9884285826800777e+30,116863.7476913569,139838198381457.44,0.0
957,1.9884285826808372e+30,116863.73427620725,137438106160298.14,0.0
958,1.9884285826804797e+30,116863.75262837835,134092732250263.69,0.0
959,1.9884285826804194e+30,116863.75007197676,135614409948849.5,0.0
960,1.988428582680848e+30,116863.74586316329,133082437860194.3,0.0
961,1.9884285826715082e+30,116863.90877949313,168674801048183.6,0.0
962,1.9884285826804386e+30,116863.75848330515,132341423728119.3,0.0
963,1.9884285826806258e+30,116863.726863649,142281793194601.56,0.0
964,1.9884285826807156e+30,116863.71749628775,144962005097969.56,0.0
965,1.9884285826808442e+30,116863.7441408261,133702857095566.61,0.0
966,1.9884285826808448e+30,116863.74600489785,133029690706574.9,0.0
967,1.9884285826805627e+30,116863.73278954894,140672468718093.64,0.0
968,1.9884285826801734e+30,116863.72221271727,148647719529555.66,0.0
969,1.988428582632044e+30,116865.00969858067,180803015221436.84,0.0
970,1.9884285826804026e+30,116863.71915852065,147480841311076.1,0.0
971,1.9884285826805002e+30,116863.73540759044,140290270110668.5,0.0
972,1.9884285826680227e+30,116864.05793093512,147600481982368.84,0.0
973,1.9884285826459976e+30,116864.58673538109,188622387042369.38,0.0
974,1.9884285826492413e+30,116864.62915155232,133335365834788.27,0.0
975,1.988428582356226e+30,116873.44947759838,242449556934990.75,0.0
976,1.9884285826307751e+30,116865.10893744757,154778154039848.38,0.0
977,1.9884285826808445e+30,116863.74677679976,132775086565376.0,0.0
978,1.9884285825747177e+30,116866.77730771445,155530746943218.5,0.0
979,1.9884285826775597e+30,116863.74394449178,168163792806356.2,0.0
980,1.9884285823744246e+30,116873.07091022623,147842846625693.9,0.0
981,1.9884285826741972e+30,116863.92513170537,133132232841269.56,0.0
982,1.9884285826677686e+30,116864.10846158784,131307141416391.17,0.0
983,1.9884285810168607e+30,116921.0092011273,285270164403314.5,0.0
984,1.988428582679274e+30,116863.74385709078,149515228514646.16,0.0
985,1.9884285826789333e+30,116863.77490750694,141072038491563.66,0.0
986,1.988428582680767e+30,116863.72456731372,141774360948016.72,0.0
987,1.9884285826804268e+30,116863.70793321918,151618651015806.88,0.0
988,1.988428582680766e+30,116863.73716831506,137024914475976.69,0.0
989,1.988428582680842e+30,116863.74959273193,131715958889759.95,0.0
990,1.98842858075992e+30,116653.30727362925,1.093284892927595e+20,1.0
991,1.9884285826771065e+30,116863.84812611762,132205801317276.73,0.0
992,1.9884285826647447e+30,116864.09231988876,170969472709499.2,0.0
993,1.9884285826771997e+30,116863.78993401167,153374566108962.6,0.0
994,1.9884285826772444e+30,116863.76107219938,164608067245192.5,0.0
995,1.9884285825223113e+30,116868.29490114549,191976819460513.06,0.0
996,1.9884285826808464e+30,116863.74815337751,132247230480054.67,0.0
997,1.988428581602401e+30,116899.09754470328,396280141670258.6,0.0
998,1.9884285826762412e+30,116863.82270767976,150726028413767.6,0.0
999,1.9884285826808386e+30,116863.74065542703,135071951690651.7,0.0
